rms,std,min,max,mav,wfl,aac,zc,wamp,afb,label
0.33695697054668566,0.3369282416183007,-0.62,0.64,0.286,7.45,0.3104166666666667,9,24,0.62,1
0.158,0.15785360306309135,-0.31,0.28,0.1332,3.3600000000000003,0.14,9,24,0.16,1
0.24957563983690395,0.2493242066065788,-0.43,0.44,0.20879999999999999,5.15,0.21458333333333335,9,23,0.34,1
0.1372588794941879,0.1370255450636851,-0.21,0.29,0.1128,3.0,0.125,10,23,0.29,1
0.22352628480784983,0.22350874703241483,-0.49,0.48,0.1796,4.52,0.18833333333333332,7,22,0.29,1
0.17694066802179764,0.1769402158922612,-0.29,0.3,0.1524,4.01,0.16708333333333333,9,23,0.2,1
0.15454449197561201,0.1545398330528411,-0.29,0.28,0.12440000000000001,3.17,0.13208333333333333,8,23,0.16,1
0.24551171051499765,0.24548531524309147,-0.44,0.49,0.20759999999999998,5.86,0.24416666666666667,9,24,0.42,1
0.2657141321044103,0.2656463814923892,-0.49,0.44,0.22440000000000002,5.48,0.22833333333333336,8,22,0.49,1
0.33757369565770373,0.3375203697556638,-0.52,0.52,0.2964,6.1,0.25416666666666665,7,24,0.52,1
0.14487235761179565,0.14486738763434648,-0.27,0.33,0.11720000000000001,3.18,0.1325,10,23,0.33,1
0.22592033994308702,0.2251698025935094,-0.38,0.39,0.19599999999999998,4.26,0.1775,6,24,0.36,1
0.19279004123657426,0.19268378240007644,-0.32,0.39,0.1632,3.98,0.16583333333333333,8,24,0.32,1
0.26702059845637377,0.2666941319189457,-0.56,0.51,0.21960000000000002,4.5200000000000005,0.18833333333333335,6,22,0.56,1
0.20150434238497192,0.20083585337284773,-0.36,0.33,0.17639999999999997,5.039999999999999,0.20999999999999996,10,24,0.36,1
0.203066491573573,0.20211838115322417,-0.5,0.34,0.1556,4.21,0.17541666666666667,9,24,0.24,1
0.2548018838234914,0.25457289722199417,-0.52,0.58,0.1868,3.91,0.16291666666666668,9,21,0.58,1
0.31121696611849425,0.3112159378952177,-0.56,0.52,0.2792,7.109999999999999,0.29624999999999996,9,24,0.56,1
0.16270218191530192,0.16219790380889637,-0.28,0.31,0.1352,3.76,0.15666666666666665,10,24,0.31,1
0.24242937115786942,0.2421886867712858,-0.41,0.48,0.2036,5.21,0.21708333333333332,9,24,0.4,1
0.24180157154162582,0.24152316659070205,-0.49,0.47,0.20199999999999999,5.299999999999999,0.2208333333333333,9,22,0.49,1
0.2411970149069014,0.2406657433038612,-0.45,0.51,0.2008,4.630000000000001,0.1929166666666667,7,24,0.45,1
0.24013329631685815,0.2397478675609024,-0.37,0.44,0.19519999999999998,5.26,0.21916666666666665,10,24,0.44,1
0.24823376079816376,0.2480632177490246,-0.49,0.44,0.2108,5.57,0.23208333333333334,10,24,0.49,1
0.21614809737770074,0.21581473536345938,-0.43,0.49,0.1784,4.84,0.20166666666666666,11,23,0.49,1
0.2873464807510264,0.2871281247109032,-0.55,0.65,0.22080000000000002,6.02,0.2508333333333333,10,24,0.53,1
0.2525707821581903,0.2510139438357957,-0.46,0.46,0.2168,5.67,0.23625,8,24,0.46,1
0.18325937902328493,0.18291681169318472,-0.4,0.36,0.15280000000000002,3.4600000000000004,0.1441666666666667,9,23,0.4,1
0.28570614274110384,0.2856050419723013,-0.55,0.62,0.2364,6.11,0.25458333333333333,8,24,0.46,1
0.3303755438890718,0.3302687390595725,-0.51,0.56,0.294,7.370000000000001,0.3070833333333334,8,24,0.53,1
0.20978083801910982,0.20922944343471356,-0.43,0.41,0.17759999999999998,4.75,0.19791666666666666,10,24,0.43,1
0.1981413636775522,0.1980731178125896,-0.38,0.36,0.16920000000000002,4.58,0.19083333333333333,10,21,0.38,1
0.20537770083434084,0.20436203169864992,-0.31,0.45,0.1764,4.38,0.1825,9,23,0.34,1
0.2000999750124922,0.19952182837975396,-0.46,0.31,0.16960000000000006,3.88,0.16166666666666665,8,23,0.46,1
0.2285957129956728,0.22856071403458644,-0.44,0.4,0.1864,4.67,0.19458333333333333,10,24,0.2,1
0.14923806484942106,0.14902348808157725,-0.32,0.3,0.1208,3.1099999999999994,0.1295833333333333,7,24,0.32,1
0.1418026798054254,0.1416756859873987,-0.29,0.25,0.11160000000000002,2.99,0.12458333333333334,8,20,0.1,1
0.323808585432814,0.3236541363863592,-0.63,0.59,0.27399999999999997,6.67,0.27791666666666665,9,24,0.63,1
0.22702422778197046,0.2266853325647692,-0.48,0.4,0.19400000000000003,4.43,0.18458333333333332,8,24,0.48,1
0.16721243972862784,0.16718181719313857,-0.31,0.39,0.13040000000000002,3.29,0.13708333333333333,13,22,0.25,1
0.23344378338263796,0.23335603699068938,-0.36,0.44,0.2072,4.74,0.1975,8,24,0.36,1
0.22332935319836486,0.22283841679566835,-0.5,0.46,0.18600000000000003,4.960000000000001,0.2066666666666667,9,23,0.5,1
0.2309458811063752,0.23092371034607947,-0.5,0.45,0.18639999999999998,4.59,0.19125,7,23,0.5,1
0.21038060747131615,0.21037110067687526,-0.31,0.33,0.18760000000000002,5.140000000000001,0.2141666666666667,9,23,0.31,1
0.2953506390715957,0.29519457989604075,-0.52,0.48,0.2624,6.75,0.28125,9,24,0.52,1
0.11855800268223146,0.11849050594878899,-0.19,0.22,0.1,2.49,0.10375000000000001,8,19,0.22,1
0.2379663841806233,0.23793915188551884,-0.5,0.46,0.19720000000000001,5.390000000000001,0.22458333333333336,9,24,0.26,1
0.2942787793912432,0.29379884274789103,-0.57,0.61,0.2376,6.04,0.25166666666666665,9,24,0.41,1
0.19406184581210187,0.1910601999370879,-0.3,0.35,0.1668,3.0100000000000002,0.12541666666666668,6,23,0.32,1
0.3289620038849472,0.3268061198937376,-0.59,0.57,0.2816,7.630000000000001,0.3179166666666667,9,24,0.59,1
0.2454872705457454,0.24545468013464317,-0.52,0.49,0.2072,5.65,0.2354166666666667,10,23,0.29,1
0.2178072542409917,0.2178057850471378,-0.43,0.42,0.17680000000000004,4.8100000000000005,0.2004166666666667,10,24,0.43,1
0.23583044756773877,0.2346060527778429,-0.55,0.38,0.17600000000000002,3.8,0.15833333333333333,8,23,0.35,1
0.3073629776014021,0.3069869052581885,-0.53,0.64,0.2504,6.09,0.25375,8,24,0.64,1
0.2769981949399671,0.2769797104482565,-0.52,0.58,0.21360000000000004,5.6,0.2333333333333333,8,23,0.58,1
0.29107387378464594,0.2906555349550392,-0.48,0.6,0.2484,6.699999999999999,0.2791666666666666,11,24,0.48,1
0.28784023346294035,0.2861876307599614,-0.54,0.47,0.24600000000000002,5.450000000000001,0.2270833333333334,9,24,0.54,1
0.24009164916756268,0.24003533073279024,-0.45,0.51,0.2036,5.5600000000000005,0.2316666666666667,10,24,0.33,1
0.17577258034175863,0.17134573236588063,-0.44,0.29,0.1368,3.67,0.15291666666666667,9,23,0.44,1
0.2,0.19987035798236816,-0.35,0.44,0.1648,4.220000000000001,0.17583333333333337,8,23,0.44,1
0.29363923443572726,0.29284371258403347,-0.55,0.59,0.2488,6.12,0.255,10,24,0.36,0
0.27367864366808015,0.27349588662354685,-0.57,0.53,0.2164,5.66,0.23583333333333334,10,24,0.57,0
0.16278820596099708,0.16267759526130204,-0.25,0.33,0.1332,3.34,0.13916666666666666,9,23,0.33,0
0.23092856038177695,0.23086065060984298,-0.4,0.4,0.20320000000000005,5.180000000000001,0.21583333333333335,9,24,0.32,0
0.2691022110648666,0.2689582867286301,-0.47,0.43,0.2288,6.42,0.2675,9,24,0.47,0
0.13994284547628721,0.13935623416266674,-0.31,0.2,0.1184,3.16,0.13166666666666668,10,23,0.18,0
0.18105247858010673,0.18068049147597534,-0.31,0.36,0.1516,4.19,0.17458333333333334,10,24,0.36,0
0.14666969693839282,0.14656275106588304,-0.27,0.3,0.12560000000000002,3.0300000000000002,0.12625,7,23,0.19,0
0.13081284340614266,0.13072474899574296,-0.29,0.25,0.1072,2.7300000000000004,0.11375000000000002,8,23,0.13,0
0.1589842759520576,0.1586694677623896,-0.34,0.27,0.1332,3.29,0.13708333333333333,9,24,0.26,0
0.21658254777336056,0.21657922338026794,-0.49,0.42,0.18439999999999998,4.37,0.18208333333333335,8,24,0.24,0
0.26082177823180336,0.26002276823386067,-0.54,0.49,0.2188,5.05,0.21041666666666667,8,24,0.37,0
0.2945029711225339,0.2941700188666411,-0.67,0.68,0.2324,6.199999999999999,0.2583333333333333,11,24,0.68,0
0.3215835816704578,0.32154775695065885,-0.58,0.63,0.2744,6.8,0.2833333333333333,8,23,0.31,0
0.26608269391300143,0.2659371354286573,-0.56,0.49,0.2016,5.38,0.22416666666666665,10,23,0.56,0
0.2016928357676593,0.2008517861508829,-0.3,0.43,0.16720000000000002,4.63,0.19291666666666665,9,23,0.3,0
0.2778776709273345,0.2776518683531591,-0.43,0.64,0.23120000000000002,5.460000000000001,0.22750000000000004,9,23,0.43,0
0.30620907889871585,0.304574194573342,-0.7,0.56,0.25560000000000005,6.68,0.2783333333333333,9,24,0.7,0
0.16951696080333675,0.1692449112972086,-0.34,0.3,0.1416,3.2300000000000004,0.13458333333333336,8,24,0.23,0
0.28445034716097645,0.284449222182097,-0.52,0.45,0.2504,6.83,0.28458333333333335,9,24,0.43,0
0.2944350522611056,0.29429128427461115,-0.47,0.56,0.2508,6.6,0.27499999999999997,9,24,0.43,0
0.18329211657897346,0.18316593569766187,-0.46,0.43,0.1396,3.1500000000000004,0.13125,7,23,0.46,0
0.22348154286204486,0.22347581524630356,-0.44,0.4,0.1672,4.4,0.18333333333333335,11,22,0.4,0
0.33183730953586277,0.33179656417750925,-0.6,0.59,0.2764,6.989999999999999,0.29124999999999995,9,24,0.6,0
0.263992424133724,0.26395575386795417,-0.51,0.56,0.22040000000000004,5.74,0.23916666666666667,9,23,0.56,0
0.21450407921529138,0.21399289707838434,-0.42,0.42,0.1708,3.91,0.16291666666666668,9,24,0.42,0
0.2805423319215836,0.2805411912714424,-0.51,0.48,0.244,6.5600000000000005,0.2733333333333334,9,23,0.42,0
0.2582401982651036,0.2581162528784269,-0.51,0.48,0.2104,5.43,0.22624999999999998,9,24,0.42,0
0.27846723326093503,0.2781349312833611,-0.53,0.52,0.2032,5.34,0.2225,11,24,0.5,0
0.30211918178096536,0.3014296601199026,-0.5,0.54,0.254,6.93,0.28875,9,22,0.46,0
0.21705298892206024,0.21589404808840842,-0.36,0.42,0.18080000000000002,4.83,0.20125,11,24,0.42,0
0.2984426243015565,0.2980754266959959,-0.49,0.56,0.25880000000000003,6.770000000000001,0.2820833333333334,10,24,0.56,0
0.24982393800434738,0.24965448123356407,-0.44,0.45,0.21000000000000005,5.59,0.23291666666666666,10,24,0.31,0
0.18579558659989748,0.1857525235360209,-0.34,0.34,0.15280000000000002,3.36,0.13999999999999999,7,22,0.25,0
0.2728149556017778,0.27277947136835645,-0.55,0.62,0.226,5.630000000000001,0.23458333333333337,8,23,0.32,0
0.18312837027615356,0.1831004096117756,-0.35,0.33,0.14800000000000002,3.6300000000000003,0.15125000000000002,8,23,0.35,0
0.3681195458000023,0.36786823728068724,-0.67,0.64,0.32480000000000003,8.54,0.3558333333333333,9,24,0.67,0
0.2868239878392322,0.28571482285663796,-0.53,0.66,0.23079999999999998,5.83,0.24291666666666667,9,24,0.66,0
0.2451938009004306,0.245161171477051,-0.44,0.49,0.2152,5.6899999999999995,0.2370833333333333,9,24,0.29,0
0.16857046004564383,0.16856286661065065,-0.31,0.32,0.1392,3.9,0.1625,11,23,0.27,0
0.236930369518135,0.23682094501964981,-0.5,0.45,0.184,4.540000000000001,0.1891666666666667,8,24,0.26,0
0.2377645894577239,0.2377373340474735,-0.42,0.46,0.2004,4.8500000000000005,0.20208333333333336,8,24,0.36,0
0.28355599094358774,0.2834067042255705,-0.51,0.56,0.2332,6.130000000000001,0.2554166666666667,10,24,0.46,0
0.2757462601740956,0.2757111532020422,-0.49,0.48,0.2308,6.130000000000001,0.2554166666666667,10,24,0.49,0
0.20643643089338662,0.20638061924512194,-0.35,0.41,0.18080000000000002,4.6899999999999995,0.19541666666666666,10,24,0.33,0
0.16272676485446394,0.16265595593153054,-0.29,0.32,0.1384,3.04,0.12666666666666668,7,20,0.29,0
0.2965198138404919,0.2964979595208035,-0.54,0.62,0.2244,6.109999999999999,0.25458333333333333,11,24,0.3,0
0.29185612894027085,0.29177690107340576,-0.53,0.58,0.25239999999999996,6.630000000000001,0.27625000000000005,10,24,0.3,0
0.18080929179663305,0.18070971196922428,-0.32,0.27,0.1556,4.359999999999999,0.18166666666666664,10,24,0.29,0
0.23824357284090583,0.23824357284090583,-0.39,0.39,0.2032,4.5,0.1875,8,23,0.39,0
0.1366894289987342,0.1364310815027133,-0.22,0.29,0.10840000000000001,2.69,0.11208333333333333,10,22,0.29,0
0.14352700094407325,0.14347125147568762,-0.3,0.27,0.11599999999999999,2.5999999999999996,0.10833333333333332,8,22,0.18,0
0.22470425007106565,0.224644074037131,-0.45,0.44,0.18599999999999997,4.9,0.2041666666666667,9,23,0.24,0
0.14818906842274163,0.14818043055680466,-0.28,0.35,0.1216,3.3400000000000003,0.1391666666666667,10,23,0.35,0
0.14264641600825448,0.14210643898149022,-0.29,0.26,0.12040000000000001,3.1000000000000005,0.12916666666666668,8,24,0.26,0
0.21313845265460665,0.2127774424134288,-0.43,0.44,0.1796,4.54,0.18916666666666668,10,23,0.44,0
0.261059380218371,0.26078343505675355,-0.43,0.56,0.22240000000000001,5.7,0.23750000000000002,10,24,0.4,0
0.3009651142574501,0.3009053007176843,-0.59,0.54,0.2468,6.01,0.2504166666666667,10,22,0.51,0
0.2062425756239482,0.20621774899363052,-0.36,0.37,0.1696,4.65,0.19375,9,24,0.32,0
0.24509589959850409,0.24506325713986582,-0.5,0.5,0.18799999999999997,4.52,0.18833333333333332,8,23,0.13,0
0.271234216130635,0.2712047197229429,-0.5,0.46,0.22400000000000003,5.86,0.24416666666666667,10,24,0.45,0
0.19364916731037085,0.19210580418092527,-0.44,0.31,0.1628,3.85,0.16041666666666668,10,24,0.44,0
0.22390176417348748,0.22297049132116115,-0.44,0.48,0.19080000000000003,4.17,0.17375,7,22,0.48,0
0.35427108264717294,0.3542527910969792,-0.63,0.67,0.306,7.529999999999999,0.31375,9,24,0.62,0
0.158,0.15793872229443923,-0.26,0.31,0.13879999999999998,3.93,0.16375,11,22,0.31,0
0.24362265904467917,0.24340057518420125,-0.35,0.4,0.21440000000000003,5.8,0.24166666666666667,10,24,0.33,0
0.2567566941678444,0.25674142634175734,-0.43,0.44,0.22279999999999997,6.380000000000001,0.26583333333333337,9,24,0.44,0
0.2857201427971084,0.2857176228376542,-0.46,0.47,0.2564,6.859999999999999,0.28583333333333333,10,22,0.38,0
0.3036050065463348,0.30360079051280486,-0.55,0.52,0.264,7.12,0.2966666666666667,9,24,0.36,0
0.2943059632423373,0.29391318446099013,-0.48,0.5,0.264,6.16,0.25666666666666665,7,24,0.5,0
0.2227554713132766,0.22273787284608784,-0.4,0.41,0.19720000000000001,4.78,0.1991666666666667,8,23,0.32,0
0.20249444436823447,0.2022473732833136,-0.35,0.42,0.1604,4.03,0.1679166666666667,10,23,0.25,0
0.2589517329542322,0.25885161772722226,-0.48,0.43,0.22,5.65,0.2354166666666667,9,24,0.48,0
0.23584740829612694,0.23492841462879707,-0.45,0.41,0.20559999999999998,4.83,0.20125,7,24,0.4,0
0.13999999999999999,0.13967046931975277,-0.19,0.34,0.12,3.4299999999999997,0.14291666666666666,10,24,0.34,0
0.21789905919943758,0.2176874824145844,-0.35,0.35,0.19359999999999997,5.5,0.22916666666666666,10,23,0.31,0
0.18091987176648122,0.18091942958123652,-0.32,0.35,0.15000000000000002,3.69,0.15375,9,23,0.35,0
0.2465684489142924,0.24656033744298778,-0.45,0.5,0.20679999999999998,5.01,0.20875,9,24,0.27,0
0.1668891847903872,0.16683117214717397,-0.3,0.31,0.1436,3.49,0.14541666666666667,8,24,0.19,0
0.26333248945012466,0.2632887388400803,-0.56,0.55,0.22,5.53,0.2304166666666667,8,23,0.4,0
0.24796773983726192,0.2470938283324778,-0.51,0.45,0.1832,3.7600000000000002,0.15666666666666668,6,24,0.51,0
0.25775181861628055,0.2574906600247861,-0.47,0.47,0.22200000000000003,6.1899999999999995,0.2579166666666666,10,24,0.34,0
0.296627712798383,0.2966209702633986,-0.55,0.49,0.2388,5.880000000000001,0.24500000000000002,9,22,0.55,0
0.3092442400433677,0.30894504365663483,-0.54,0.54,0.2576,6.460000000000001,0.2691666666666667,7,24,0.54,0
0.25634351952019385,0.2559824994018146,-0.45,0.43,0.2032,5.23,0.21791666666666668,8,23,0.38,0
0.2619541944691858,0.2619514458826292,-0.47,0.47,0.23079999999999998,5.9399999999999995,0.24749999999999997,9,22,0.47,0
0.1909135930205076,0.1908867727214225,-0.44,0.41,0.156,4.23,0.17625000000000002,9,24,0.19,0
0.29730792118609956,0.29699670031837055,-0.49,0.49,0.24800000000000005,6.54,0.2725,9,24,0.49,0
0.22230609528305784,0.22217614633438937,-0.45,0.48,0.18280000000000002,5.01,0.20875,11,24,0.26,0
0.3133368794125581,0.3128644434895087,-0.51,0.61,0.2676,7.0,0.2916666666666667,9,24,0.55,0
0.19909796583591707,0.19774164963406166,-0.51,0.25,0.16079999999999997,4.050000000000001,0.16875000000000004,10,23,0.51,0
0.18670832868407344,0.18618270596379247,-0.37,0.38,0.1588,3.78,0.1575,8,23,0.38,0
0.3619060651605607,0.36034294775949205,-0.71,0.65,0.3152,8.24,0.3433333333333333,10,24,0.71,0
0.2312141864159723,0.23121107239922573,-0.41,0.42,0.1956,5.279999999999999,0.21999999999999997,10,24,0.41,0
0.20606794995826014,0.20594212779322255,-0.38,0.37,0.1744,4.4,0.18333333333333335,10,24,0.38,0
0.19365949499056326,0.19364462295659024,-0.29,0.44,0.15280000000000002,3.9400000000000004,0.16416666666666668,10,24,0.32,0
0.33811240734406656,0.33801775101316794,-0.53,0.56,0.29040000000000005,7.76,0.3233333333333333,9,24,0.5,0
0.19937903600930565,0.19936459063735465,-0.37,0.44,0.1664,4.220000000000001,0.17583333333333337,8,23,0.27,0
0.14756693396557374,0.14725433779688799,-0.24,0.23,0.128,3.68,0.15333333333333335,11,24,0.19,0
0.2124805873485858,0.2124802108432689,-0.39,0.37,0.1876,4.17,0.17375,8,24,0.29,0
0.26167154984827834,0.2616409753842085,-0.44,0.45,0.2176,5.529999999999999,0.23041666666666663,7,23,0.4,0
0.2675593392128184,0.26730776270059947,-0.6,0.71,0.20440000000000003,4.93,0.20541666666666666,8,20,0.37,0
0.28724205820178905,0.2855859940543303,-0.6,0.44,0.24919999999999998,6.42,0.2675,9,24,0.6,0
0.15355780670483674,0.1534071706277122,-0.29,0.34,0.1284,2.96,0.12333333333333334,8,23,0.34,0
0.21153723076565034,0.21140066225061832,-0.4,0.38,0.1724,4.78,0.1991666666666667,10,23,0.34,0
0.25211901951261034,0.2515316282299306,-0.38,0.44,0.2212,6.26,0.2608333333333333,10,24,0.44,0
0.10428806259586954,0.1035482496230622,-0.19,0.26,0.08200000000000002,2.01,0.08374999999999999,10,23,0.18,0
0.27942082957431785,0.27873255999254914,-0.52,0.51,0.2412,5.82,0.24250000000000002,10,24,0.52,0
0.21734764779035454,0.21733439672541482,-0.37,0.53,0.17840000000000003,4.140000000000001,0.17250000000000001,8,24,0.53,0
0.20959961832026316,0.20923250225526627,-0.4,0.36,0.17720000000000002,3.4299999999999997,0.14291666666666666,6,23,0.36,0
0.13837629854855926,0.13834796709746044,-0.23,0.24,0.1204,3.37,0.14041666666666666,11,23,0.24,0
0.3209984423638221,0.3203238361408654,-0.68,0.6,0.27520000000000006,6.779999999999999,0.2825,9,24,0.49,0
0.2290327487500423,0.22741187304096505,-0.36,0.51,0.196,4.970000000000001,0.20708333333333337,9,24,0.51,0
0.2730933906193997,0.2728469167866846,-0.46,0.42,0.2428,5.859999999999999,0.24416666666666664,8,24,0.46,0
0.15047923444781344,0.15038936132585976,-0.3,0.34,0.1228,3.02,0.12583333333333332,8,22,0.3,0
0.20362711017936683,0.20362553867332064,-0.46,0.47,0.16079999999999997,4.24,0.17666666666666667,9,24,0.46,0
0.13098091464026354,0.13097541754085001,-0.26,0.27,0.1084,3.0,0.125,10,23,0.27,0
0.19987996397838378,0.19951942261343883,-0.38,0.32,0.16400000000000003,3.8200000000000003,0.15916666666666668,9,24,0.32,0
0.29940607876260633,0.2993844351331578,-0.68,0.62,0.23479999999999998,5.92,0.24666666666666667,9,24,0.33,0
0.3687817782917155,0.3681008557447266,-0.76,0.67,0.316,8.04,0.33499999999999996,9,24,0.5,0
0.23056452459127355,0.23055897293317387,-0.41,0.48,0.192,5.49,0.22875,10,23,0.48,0
0.23550796164885807,0.23465719677862004,-0.48,0.49,0.1968,4.66,0.19416666666666668,9,23,0.34,0
0.26028445977430154,0.26023251142007603,-0.51,0.44,0.22039999999999998,5.960000000000001,0.24833333333333338,10,23,0.39,0
0.23994999479058132,0.23994999479058132,-0.37,0.53,0.204,5.02,0.20916666666666664,8,23,0.53,0
0.255906232827573,0.2558749694675116,-0.42,0.44,0.2152,5.99,0.24958333333333335,10,24,0.44,0
0.24358160850113458,0.24330524038746063,-0.46,0.43,0.21239999999999998,5.51,0.22958333333333333,9,24,0.46,0
0.2483545852204062,0.24834298862661697,-0.52,0.54,0.1928,5.29,0.22041666666666668,10,24,0.2,0
0.2083554654910689,0.2083243624735235,-0.38,0.39,0.1812,4.890000000000001,0.20375000000000001,10,24,0.36,0
0.19712939912656355,0.1967390149411143,-0.48,0.4,0.15560000000000002,3.7800000000000002,0.1575,8,23,0.48,0
0.32361705764684284,0.3236160688223006,-0.55,0.51,0.2904,7.45,0.3104166666666667,8,23,0.51,0
0.123547561691844,0.12317402323542087,-0.21,0.23,0.1032,2.45,0.10208333333333335,7,23,0.23,0
0.2137662274541982,0.21369286370864143,-0.45,0.39,0.17919999999999997,3.95,0.16458333333333333,8,23,0.45,0
0.20150434238497195,0.2013895727191455,-0.38,0.38,0.154,3.85,0.16041666666666668,9,21,0.21,0
0.2256723288309845,0.22550068736037146,-0.47,0.44,0.18880000000000002,5.1,0.2125,10,24,0.24,0
0.28422526277584825,0.28403492742970887,-0.43,0.54,0.23600000000000002,6.12,0.255,8,24,0.54,0
0.2565696786450028,0.25630731554132435,-0.57,0.46,0.20919999999999997,5.23,0.21791666666666668,10,22,0.46,0
0.29254743205162476,0.29226727493853977,-0.56,0.52,0.2456,6.01,0.2504166666666667,8,23,0.45,0
0.17537388631150305,0.17531868126357786,-0.33,0.28,0.1516,4.34,0.18083333333333332,10,24,0.28,0
0.28624465060503756,0.28624465060503756,-0.62,0.59,0.23439999999999997,6.25,0.2604166666666667,10,24,0.5,0
0.16094719630984566,0.16081989926622886,-0.27,0.32,0.14,3.3000000000000007,0.13750000000000004,8,23,0.19,0
0.22831557108528536,0.2279101577376489,-0.46,0.45,0.1936,5.16,0.215,10,24,0.46,0
0.29463197382497375,0.2943179233414099,-0.55,0.48,0.25920000000000004,6.16,0.25666666666666665,8,24,0.46,0
0.27315929418564544,0.27285923110644433,-0.45,0.54,0.2328,6.279999999999999,0.26166666666666666,10,24,0.54,0
0.38119286457120366,0.3811876178471698,-0.57,0.6,0.34119999999999995,8.85,0.36874999999999997,9,24,0.56,0
0.27233068134163657,0.2679952238380378,-0.57,0.5,0.24280000000000002,4.880000000000001,0.20333333333333337,6,24,0.36,1
0.3149730147171341,0.3136535668536227,-0.62,0.58,0.272,6.07,0.2529166666666667,8,24,0.62,1
0.23570320320267182,0.2356947178024998,-0.43,0.44,0.18600000000000003,5.279999999999999,0.21999999999999997,10,24,0.39,1
0.23063390904201403,0.2306325215575635,-0.4,0.4,0.18960000000000002,5.05,0.21041666666666667,10,24,0.4,1
0.2584492213182311,0.2584489117794849,-0.45,0.41,0.21880000000000002,5.71,0.23791666666666667,8,24,0.45,1
0.23569471780249973,0.23564583594878138,-0.43,0.51,0.20079999999999998,4.92,0.205,9,23,0.51,1
0.2997665758552811,0.299360384820704,-0.57,0.51,0.2364,6.26,0.2608333333333333,9,23,0.48,1
0.3713219627223793,0.37126680433348735,-0.69,0.75,0.3128,8.09,0.33708333333333335,9,24,0.75,1
0.2043428491530839,0.20409801566894276,-0.36,0.35,0.17559999999999998,4.43,0.18458333333333332,8,24,0.36,1
0.26418175561533386,0.26417691042178537,-0.48,0.5,0.21600000000000003,5.9,0.24583333333333335,10,24,0.5,1
0.23682905227188664,0.23682364746789966,-0.44,0.41,0.20160000000000003,4.69,0.19541666666666668,9,23,0.44,1
0.2678133678515694,0.26781067939871256,-0.47,0.54,0.2292,6.26,0.2608333333333333,9,24,0.37,1
0.2335979451964422,0.2332017152595581,-0.39,0.4,0.20800000000000005,5.41,0.22541666666666668,9,24,0.4,1
0.2606913884270058,0.2604506863112478,-0.42,0.42,0.22080000000000002,5.72,0.2383333333333333,10,24,0.41,1
0.21434551546510136,0.2138612634396421,-0.43,0.48,0.17679999999999998,4.66,0.19416666666666668,11,24,0.3,1
0.3418888708337843,0.34147585566186084,-0.63,0.56,0.30000000000000004,8.3,0.3458333333333334,10,24,0.56,1
0.1825267103741258,0.18251575274479734,-0.27,0.33,0.1636,4.46,0.18583333333333332,9,24,0.28,1
0.21136697944570246,0.2112,-0.4,0.38,0.18120000000000006,4.68,0.19499999999999998,9,24,0.36,1
0.21688706738761535,0.21688559196036974,-0.46,0.45,0.17279999999999998,4.3,0.17916666666666667,8,24,0.3,1
0.2418594633252956,0.24169931733457586,-0.47,0.46,0.20159999999999997,5.220000000000001,0.21750000000000003,10,24,0.46,1
0.20516334955347165,0.20509744025706417,-0.38,0.32,0.1844,4.380000000000001,0.18250000000000002,8,23,0.31,1
0.2344696142360455,0.23430441737193092,-0.57,0.59,0.18080000000000002,4.449999999999999,0.18541666666666665,9,23,0.59,1
0.14174625215503936,0.1415423611502931,-0.25,0.27,0.12120000000000002,3.1700000000000004,0.13208333333333336,9,22,0.19,1
0.2555542995138215,0.25438679210996784,-0.52,0.38,0.2132,4.8100000000000005,0.2004166666666667,8,22,0.42,1
0.24217349153034898,0.24195007749533787,-0.4,0.5,0.2064,5.11,0.21291666666666667,9,24,0.5,1
0.22181073012818836,0.2217400279606729,-0.4,0.37,0.1832,4.49,0.18708333333333335,7,24,0.4,1
0.25297430699578954,0.25294869044926876,-0.44,0.47,0.2244,5.96,0.24833333333333332,9,23,0.36,1
0.22357101779971392,0.22356529247626966,-0.48,0.45,0.184,4.550000000000001,0.18958333333333335,10,24,0.48,1
0.282403965977817,0.28221240227885097,-0.5,0.57,0.2352,6.33,0.26375,9,24,0.57,1
0.22235107375499674,0.2222071105972984,-0.41,0.35,0.19039999999999999,5.2299999999999995,0.21791666666666665,12,22,0.41,1
0.22322186272854191,0.22320430103382863,-0.42,0.45,0.17559999999999998,4.7700000000000005,0.19875,10,23,0.45,1
0.21793577035447853,0.21755955506481436,-0.42,0.4,0.1848,4.87,0.20291666666666666,9,24,0.33,1
0.20365657367244494,0.2034109141614579,-0.35,0.44,0.16519999999999999,3.9599999999999995,0.16499999999999998,9,24,0.26,1
0.36191159141425683,0.3611926909559494,-0.72,0.62,0.3164,8.3,0.3458333333333334,8,24,0.47,1
0.2839506999463111,0.2839481642835537,-0.47,0.55,0.25079999999999997,6.58,0.27416666666666667,9,24,0.46,1
0.3436102443175989,0.34346469978732896,-0.59,0.65,0.2916,7.16,0.29833333333333334,9,24,0.44,1
0.3051753594247085,0.3051436383082564,-0.54,0.62,0.2596,7.109999999999999,0.29624999999999996,10,24,0.36,1
0.2636512848442048,0.2635735950356181,-0.54,0.59,0.22,5.29,0.22041666666666668,9,23,0.29,1
0.10943491216243563,0.10919780217568484,-0.19,0.21,0.09119999999999999,2.21,0.09208333333333334,8,23,0.21,1
0.17439036670642102,0.17428711943227476,-0.33,0.32,0.1396,3.5200000000000005,0.1466666666666667,9,23,0.11,1
0.20134547424762245,0.20134189827256524,-0.42,0.35,0.16440000000000002,4.32,0.18000000000000002,8,24,0.22,1
0.3012640038238887,0.30123744787127643,-0.49,0.53,0.2664,6.550000000000001,0.2729166666666667,9,24,0.53,1
0.2120660274537155,0.21189959886701062,-0.4,0.4,0.1708,4.38,0.1825,11,23,0.4,1
0.1806875756658437,0.18068049147597534,-0.36,0.33,0.1472,3.81,0.15875,9,23,0.3,1
0.16597590186530092,0.1658018093990533,-0.28,0.3,0.13960000000000003,3.74,0.15583333333333335,9,24,0.3,1
0.2451122191976565,0.2450064488947179,-0.4,0.46,0.2152,5.66,0.23583333333333334,9,24,0.46,1
0.2193718304614337,0.218872017398296,-0.45,0.4,0.18680000000000002,4.700000000000001,0.1958333333333334,9,24,0.27,1
0.1920833152566875,0.19057806799314553,-0.33,0.34,0.1592,3.27,0.13625,9,24,0.23,1
0.2135602959353634,0.2122963965779919,-0.39,0.39,0.1856,4.83,0.20125,8,24,0.39,1
0.17559043254118376,0.17558861010897034,-0.32,0.31,0.14400000000000002,3.87,0.16125,10,23,0.23,1
0.17345892885637224,0.17334082035112214,-0.33,0.39,0.1472,3.86,0.16083333333333333,10,24,0.39,1
0.17544229820656135,0.1752410910717004,-0.31,0.28,0.15,3.5000000000000004,0.14583333333333334,8,24,0.28,1
0.20676556773312138,0.2065782176319662,-0.38,0.39,0.17119999999999996,4.07,0.16958333333333334,9,22,0.29,1
0.17378147196982768,0.17378147196982768,-0.38,0.31,0.1496,3.61,0.15041666666666667,8,21,0.38,1
0.3112876483254676,0.3112853353436361,-0.63,0.56,0.254,6.83,0.28458333333333335,9,24,0.38,1
0.31694163500556377,0.3164745803378211,-0.79,0.71,0.2396,5.92,0.24666666666666667,8,24,0.16,1
0.27975703744499436,0.27970098319455367,-0.58,0.74,0.2256,5.1,0.2125,8,24,0.74,1
0.26872290561096573,0.2687154628970949,-0.45,0.43,0.23879999999999998,6.48,0.27,10,24,0.45,1
0.24298971171636052,0.24287082986641276,-0.43,0.44,0.20920000000000002,5.529999999999999,0.23041666666666663,9,24,0.44,1
0.11906300852909774,0.11901999831961015,-0.23,0.22,0.1024,3.0300000000000002,0.12625,10,24,0.23,1
0.07408103670980853,0.07404215015786617,-0.12,0.16,0.06480000000000001,1.48,0.06166666666666667,8,22,0.16,1
0.24695748621979452,0.24668490022699,-0.41,0.46,0.2164,5.879999999999999,0.24499999999999997,9,23,0.33,1
0.26913936910084335,0.2691152912786637,-0.41,0.47,0.23560000000000003,6.74,0.2808333333333333,10,24,0.35,1
0.23097185975785017,0.2309133170694146,-0.39,0.4,0.198,5.35,0.22291666666666665,9,24,0.4,1
0.23271441725857897,0.23242512772933996,-0.43,0.41,0.1892,4.9799999999999995,0.2075,9,24,0.43,1
0.17018813119603846,0.1701839005311607,-0.26,0.29,0.1476,4.180000000000001,0.1741666666666667,10,24,0.29,1
0.10158740079360236,0.10127191120937731,-0.18,0.19,0.0872,2.3900000000000006,0.09958333333333336,11,23,0.19,1
0.2637422984657562,0.26334889405501594,-0.54,0.5,0.2232,5.7700000000000005,0.2404166666666667,10,24,0.36,1
0.2610134096172072,0.2608907817459252,-0.5,0.45,0.22719999999999999,6.359999999999999,0.26499999999999996,9,24,0.38,1
0.21637929660667632,0.216361179512407,-0.36,0.36,0.19,4.74,0.1975,9,24,0.36,1
0.15782268531488114,0.15776133873671333,-0.28,0.4,0.1244,3.34,0.13916666666666666,9,24,0.28,1
0.23178438256276027,0.23177575369309017,-0.4,0.43,0.20440000000000003,5.470000000000001,0.22791666666666668,9,24,0.4,1
0.3417718537270148,0.34167821118707586,-0.61,0.58,0.29679999999999995,7.53,0.31375000000000003,9,24,0.61,1
0.2624804754643667,0.26246950299034744,-0.48,0.51,0.2112,5.53,0.2304166666666667,10,24,0.2,1
0.2155365398256175,0.2153880219510825,-0.38,0.46,0.18560000000000001,5.02,0.20916666666666664,9,22,0.46,1
0.10759182125050212,0.10716268007100233,-0.18,0.23,0.08960000000000001,2.17,0.09041666666666666,8,23,0.18,1
0.2717130839691015,0.27152900397563423,-0.53,0.56,0.22520000000000004,5.07,0.21125000000000002,7,24,0.31,1
0.2848719010362377,0.2845841878952518,-0.52,0.6,0.23439999999999997,5.19,0.21625000000000003,6,23,0.6,1
0.297469326149773,0.2971582743253164,-0.53,0.52,0.25920000000000004,6.79,0.28291666666666665,10,24,0.53,1
0.25164260370612923,0.25147437245174703,-0.45,0.47,0.2084,5.960000000000001,0.24833333333333338,11,24,0.47,1
0.21749482752470228,0.21745804192993187,-0.41,0.4,0.18000000000000005,5.0600000000000005,0.21083333333333334,10,24,0.41,1
0.21235818797494013,0.21148843940036063,-0.36,0.46,0.16080000000000003,4.16,0.17333333333333334,12,23,0.29,1
0.2270858868357961,0.2268828772737158,-0.54,0.47,0.1584,4.07,0.16958333333333334,8,23,0.54,1
0.20823064135712593,0.2075518248534568,-0.39,0.37,0.168,4.38,0.1825,9,22,0.39,1
0.08409518416651456,0.08407996194099995,-0.14,0.17,0.07200000000000001,1.75,0.07291666666666667,7,23,0.11,1
0.17153425313913254,0.17153425313913254,-0.3,0.26,0.1528,4.09,0.17041666666666666,9,23,0.3,1
0.19982992768852215,0.1998199189270179,-0.45,0.42,0.15960000000000002,4.34,0.18083333333333332,9,22,0.22,1
0.1981716427746412,0.19811350282098392,-0.38,0.35,0.16400000000000003,4.390000000000001,0.1829166666666667,10,24,0.32,1
0.23307509519466038,0.2326542499074539,-0.44,0.39,0.20759999999999998,5.110000000000001,0.21291666666666673,9,24,0.44,1
0.22372304306888013,0.223232972474946,-0.45,0.47,0.1804,4.300000000000001,0.1791666666666667,8,23,0.11,1
0.21644398813549892,0.21632420114263684,-0.43,0.46,0.18320000000000003,4.55,0.18958333333333333,8,23,0.43,1
0.17915356541246955,0.17908925149209823,-0.33,0.41,0.1424,3.49,0.14541666666666667,9,23,0.32,1
0.22995651762887695,0.2298173187555716,-0.41,0.43,0.1944,5.180000000000001,0.21583333333333335,9,22,0.26,1
0.18576329023787236,0.1851071041316351,-0.33,0.34,0.16200000000000003,3.77,0.15708333333333332,7,22,0.21,1
0.3529305880764658,0.35253050931798796,-0.67,0.65,0.3112,7.870000000000001,0.3279166666666667,9,24,0.67,1
0.2118867622103844,0.21170394422400352,-0.4,0.35,0.18080000000000002,5.0600000000000005,0.21083333333333334,10,23,0.4,1
0.22653035116734357,0.22648761555546476,-0.35,0.36,0.20199999999999999,5.380000000000001,0.2241666666666667,9,24,0.33,1
0.16861791126686396,0.16806855744011132,-0.36,0.33,0.1376,3.5300000000000002,0.14708333333333334,9,24,0.36,1
0.11562006746235706,0.1155203878109834,-0.23,0.24,0.08960000000000001,2.2,0.09166666666666667,9,21,0.09,1
0.28513856280762867,0.28513744054402956,-0.59,0.57,0.2,5.27,0.21958333333333332,9,23,0.16,1
0.2709317257170153,0.2708251096187353,-0.54,0.49,0.23,6.4,0.26666666666666666,10,24,0.54,1
0.23255966976240747,0.2322701874972335,-0.46,0.49,0.19640000000000002,4.75,0.19791666666666666,7,23,0.49,1
0.2859020811396797,0.28582120285241264,-0.49,0.54,0.24600000000000002,5.73,0.23875000000000002,7,24,0.54,1
0.19751455642559615,0.1974460939091984,-0.32,0.33,0.1724,4.79,0.19958333333333333,10,24,0.29,1
0.2204812917233569,0.22028926437754517,-0.37,0.39,0.182,5.0,0.20833333333333334,10,24,0.37,1
0.209990475974507,0.20991579264076343,-0.45,0.36,0.18479999999999996,4.8500000000000005,0.20208333333333336,9,24,0.45,1
0.12033287165193059,0.11988260924754683,-0.34,0.24,0.0928,2.64,0.11,10,24,0.15,1
0.2830688962072661,0.2828472379218153,-0.49,0.48,0.248,6.52,0.27166666666666667,9,24,0.49,1
0.16347476869535554,0.16347036428661924,-0.33,0.32,0.1372,3.6700000000000004,0.15291666666666667,8,23,0.32,1
0.18363006289820846,0.18358649187780676,-0.28,0.31,0.16560000000000002,4.43,0.18458333333333332,9,24,0.26,1
0.20405881505095536,0.20365696649022344,-0.34,0.54,0.1576,3.48,0.145,9,24,0.26,1
0.20976176963403032,0.208290566277016,-0.56,0.39,0.15200000000000002,3.2500000000000004,0.13541666666666669,6,24,0.56,1
0.1482700239428051,0.14826139079342268,-0.29,0.31,0.1168,3.08,0.12833333333333333,10,23,0.15,1
0.19407215153133126,0.1940655559340709,-0.39,0.38,0.16400000000000003,4.03,0.1679166666666667,8,22,0.19,1
0.24074052421642683,0.2405646690601095,-0.51,0.52,0.19480000000000003,5.27,0.21958333333333332,10,24,0.52,1
0.24934313706216177,0.24925039618825082,-0.47,0.49,0.1916,5.199999999999999,0.21666666666666665,9,22,0.49,1
0.190934543757802,0.19082725172259857,-0.4,0.37,0.1592,4.3100000000000005,0.17958333333333334,10,24,0.37,1
0.2168594014563353,0.21675276238147465,-0.38,0.36,0.1852,5.02,0.20916666666666664,9,24,0.36,1
0.20544585661434012,0.20525730194075922,-0.35,0.4,0.1728,4.84,0.20166666666666666,10,23,0.27,1
0.230694603317893,0.2306526392651946,-0.4,0.39,0.2036,5.67,0.23625,10,24,0.31,1
0.22990432792794482,0.22873075875360532,-0.47,0.43,0.1816,4.34,0.18083333333333332,10,23,0.47,1
0.3081493144564823,0.3071171763350269,-0.58,0.5,0.2724,6.14,0.2558333333333333,7,24,0.49,1
0.23052114870440849,0.23022910328627005,-0.32,0.51,0.19720000000000001,5.43,0.22624999999999998,10,24,0.51,1
0.15110261414019283,0.151083553042679,-0.27,0.28,0.1288,3.48,0.145,9,23,0.28,1
0.20333224043422138,0.203292892153169,-0.48,0.43,0.15760000000000002,4.13,0.17208333333333334,10,24,0.14,1
0.249022087373791,0.24899606422592305,-0.48,0.47,0.20119999999999996,5.2,0.21666666666666667,8,24,0.35,1
0.21527656630483497,0.214739283783848,-0.45,0.37,0.1672,4.35,0.18125,11,24,0.45,1
0.27413135537548416,0.27377362911719605,-0.45,0.47,0.2284,5.91,0.24625,8,24,0.47,1
0.17281203661782357,0.17254518248852965,-0.32,0.28,0.14400000000000002,3.7600000000000002,0.15666666666666668,11,24,0.32,1
0.22331144171313747,0.2232078851653767,-0.36,0.37,0.18840000000000004,4.74,0.1975,9,23,0.36,1
0.2360338958709109,0.236,-0.47,0.43,0.19039999999999999,5.140000000000001,0.2141666666666667,11,24,0.19,1
0.2648093653932957,0.26480906328900455,-0.47,0.51,0.23,6.58,0.27416666666666667,10,23,0.37,1
0.20913153755471697,0.20894630889297852,-0.47,0.42,0.1632,4.3999999999999995,0.18333333333333332,11,22,0.47,1
0.23908994123551078,0.2390333867893772,-0.43,0.46,0.1996,5.45,0.22708333333333333,10,24,0.33,1
0.24128820940941148,0.24104638557754815,-0.46,0.48,0.18119999999999997,4.9799999999999995,0.2075,12,24,0.48,1
0.18786165122238227,0.1875509530767573,-0.33,0.31,0.16520000000000004,3.5600000000000005,0.14833333333333334,7,23,0.32,1
0.2640075756488817,0.2638472285243868,-0.56,0.55,0.222,5.109999999999999,0.21291666666666664,7,24,0.55,1
0.32288697712976905,0.3227670367308285,-0.54,0.54,0.2672,6.53,0.27208333333333334,8,24,0.54,1
0.24753989577439836,0.24750078787753382,-0.43,0.5,0.2028,5.66,0.23583333333333334,11,24,0.33,1
0.1834884192530962,0.1833902941815624,-0.29,0.29,0.16119999999999998,4.57,0.19041666666666668,10,24,0.29,1
0.1486203216252744,0.14835956322394592,-0.32,0.26,0.12560000000000002,3.3899999999999997,0.14125,10,24,0.32,1
0.2554133904085688,0.25530029377186386,-0.4,0.44,0.22040000000000004,6.21,0.25875,9,23,0.3,1
0.21642550681470057,0.21624652598365598,-0.46,0.43,0.1672,4.33,0.18041666666666667,9,24,0.46,1
0.1814497175528251,0.18144574946798836,-0.35,0.39,0.1388,3.57,0.14875,9,24,0.39,1
0.12851459061133877,0.1285139681124196,-0.28,0.27,0.09639999999999999,2.68,0.11166666666666668,10,22,0.06,1
2.554840112414082,2.5467465048567357,-5.15,8.04,1.3448,36.53,1.5220833333333335,10,23,0.17,1
6.682125709682511,6.679262282617744,-13.94,15.41,4.9588,123.46000000000001,5.144166666666667,9,24,15.41,1
0.8701609046607415,0.8701203594905708,-1.82,1.97,0.6948000000000001,18.27,0.76125,10,24,1.97,1
0.3315237548049913,0.3314945550080725,-0.63,0.57,0.2716,7.35,0.30624999999999997,11,24,0.57,1
0.22928584779702388,0.22928549888730423,-0.35,0.37,0.20679999999999998,4.6899999999999995,0.19541666666666666,7,23,0.37,1
0.21650866033486976,0.21647872874719123,-0.42,0.48,0.1804,4.739999999999999,0.19749999999999998,10,24,0.29,1
0.23976655313033135,0.23954089421224092,-0.49,0.46,0.19519999999999998,5.09,0.21208333333333332,11,22,0.35,1
0.2584492213182311,0.2578216437772438,-0.55,0.38,0.218,6.05,0.2520833333333333,10,23,0.35,1
0.2671179514746248,0.2667295259246715,-0.44,0.52,0.22560000000000002,5.51,0.22958333333333333,8,24,0.52,1
0.2764199703349959,0.2764095512097945,-0.54,0.55,0.2376,6.26,0.2608333333333333,9,23,0.54,1
0.23767204294994393,0.23753736548172794,-0.45,0.45,0.20319999999999996,4.99,0.20791666666666667,8,24,0.45,1
0.24003333101883997,0.23994799436544578,-0.44,0.41,0.21280000000000002,5.12,0.21333333333333335,8,24,0.44,1
0.19983993594874874,0.19960921822400887,-0.37,0.35,0.168,3.96,0.165,9,24,0.37,1
0.23286906192107187,0.23286597003426673,-0.45,0.45,0.2052,5.73,0.23875000000000002,10,23,0.27,1
0.3289680835582686,0.3284752654310519,-0.54,0.62,0.27240000000000003,6.5600000000000005,0.2733333333333334,10,24,0.62,1
0.23395726105423614,0.23382044393080773,-0.46,0.44,0.19519999999999998,4.84,0.20166666666666666,8,23,0.37,1
0.19430903221415108,0.1941603461059956,-0.32,0.31,0.1716,4.37,0.18208333333333335,8,24,0.28,1
0.318188623303851,0.3180314449861837,-0.71,0.64,0.24359999999999998,6.17,0.25708333333333333,9,23,0.15,1
0.29907858499063417,0.29880455150482566,-0.57,0.59,0.2552,7.13,0.2970833333333333,9,24,0.57,1
0.21085540068966696,0.21084591530309524,-0.37,0.34,0.1812,4.930000000000001,0.2054166666666667,9,24,0.34,1
0.17273100474437125,0.17259710310431053,-0.3,0.35,0.1484,4.34,0.18083333333333332,10,23,0.2,1
0.29751638610335396,0.29701878728457565,-0.46,0.48,0.2588,6.800000000000001,0.2833333333333334,8,24,0.41,1
0.23218957771614127,0.23118269831455815,-0.56,0.36,0.19519999999999996,4.85,0.2020833333333333,8,23,0.3,1
0.23116228066014577,0.23116193458266437,-0.48,0.6,0.17560000000000003,4.14,0.1725,8,24,0.6,1
0.2400083331886624,0.23972784569173433,-0.49,0.47,0.19879999999999998,5.140000000000001,0.2141666666666667,9,24,0.33,1
0.18964176755134932,0.18941847850724597,-0.32,0.34,0.166,4.59,0.19125,10,24,0.34,1
0.265329983228432,0.2649812068807899,-0.51,0.53,0.22159999999999996,6.09,0.25375,10,23,0.53,1
0.17986661724733694,0.17965121764129516,-0.4,0.37,0.14,3.24,0.135,8,23,0.2,1
0.19471004082994797,0.19470839735358103,-0.36,0.4,0.16080000000000003,3.55,0.14791666666666667,8,23,0.22,1
0.24961570463414356,0.24922279189512342,-0.44,0.42,0.21400000000000002,5.109999999999999,0.21291666666666664,8,23,0.44,1
0.1691389960949278,0.16904626585642168,-0.4,0.39,0.1336,3.5700000000000003,0.14875000000000002,10,24,0.4,1
0.24631686909345044,0.24628438846179432,-0.46,0.51,0.20800000000000002,4.949999999999999,0.20624999999999996,8,23,0.24,1
0.20844183841062236,0.20686381993959216,-0.37,0.54,0.1696,3.99,0.16625,8,23,0.26,1
0.3050639277266324,0.30429827472399507,-0.58,0.54,0.25279999999999997,5.54,0.23083333333333333,9,23,0.58,1
0.3503769398804665,0.3501574502991476,-0.53,0.58,0.3068,8.059999999999999,0.33583333333333326,10,24,0.48,1
0.14825653442597397,0.14825599481977114,-0.34,0.28,0.1124,2.83,0.11791666666666667,8,22,0.34,1
0.28156704352604905,0.28145337091603645,-0.54,0.55,0.2096,5.3500000000000005,0.22291666666666668,9,23,0.55,1
0.2915270141856497,0.291526739768413,-0.46,0.5,0.24360000000000004,5.640000000000001,0.23500000000000001,8,24,0.5,1
0.17507712586171845,0.17494501993483552,-0.38,0.43,0.134,3.71,0.15458333333333332,8,24,0.19,1
0.38831430568548464,0.3882893766252175,-0.54,0.58,0.354,9.14,0.38083333333333336,9,24,0.58,1
0.32862744864055404,0.3283934225894301,-0.71,0.68,0.2652,7.37,0.3070833333333333,10,24,0.71,1
0.21168845032263806,0.21105222102598212,-0.35,0.37,0.17240000000000003,4.36,0.18166666666666667,9,24,0.37,1
0.20768244990850818,0.2065975798502974,-0.41,0.32,0.17720000000000002,4.9,0.2041666666666667,10,24,0.34,1
0.2322756982553276,0.2322756982553276,-0.49,0.45,0.1904,5.01,0.20875,10,24,0.37,1
0.12818736287169652,0.12818486650147123,-0.27,0.19,0.10799999999999998,2.55,0.10625,10,21,0.18,1
0.22069888989299424,0.220350266621123,-0.38,0.48,0.1772,4.109999999999999,0.17124999999999999,8,23,0.39,1
0.1841412501315227,0.18413038858374248,-0.44,0.37,0.14120000000000002,3.35,0.13958333333333334,9,23,0.44,1
0.30467687801997706,0.30423517219414326,-0.74,0.75,0.2308,5.92,0.24666666666666667,10,24,0.27,1
0.23047776465420694,0.22922478051031045,-0.59,0.36,0.1752,4.529999999999999,0.18874999999999997,10,24,0.59,1
0.19593876594487372,0.19521721235587808,-0.41,0.49,0.1568,3.7600000000000002,0.15666666666666668,10,22,0.26,1
0.23549946921383919,0.23547195162056986,-0.4,0.49,0.2028,5.300000000000001,0.22083333333333335,10,23,0.37,1
0.31846506872811026,0.3183321535754753,-0.52,0.55,0.2732,7.66,0.31916666666666665,10,24,0.47,1
0.3536382332271215,0.35300220962481244,-0.68,0.63,0.30519999999999997,7.939999999999999,0.33083333333333326,10,24,0.68,1
0.301794632159023,0.3017903908344333,-0.71,0.62,0.2504,6.65,0.27708333333333335,10,24,0.42,1
0.246154423076247,0.24589949166275232,-0.49,0.58,0.1904,4.83,0.20125,10,24,0.58,1
0.28077749197540747,0.28075441225384157,-0.62,0.51,0.21080000000000002,5.54,0.23083333333333333,11,23,0.5,1
0.18203296404772407,0.18194680541301075,-0.38,0.38,0.1408,3.4800000000000004,0.14500000000000002,9,21,0.38,1
0.1979292802998081,0.1977982810845433,-0.31,0.37,0.168,4.34,0.18083333333333332,10,23,0.29,1
0.28960662975836726,0.2894198334599756,-0.58,0.61,0.2408,6.68,0.2783333333333333,10,24,0.61,1
0.2403247802454004,0.24004466251095857,-0.46,0.42,0.2036,5.7,0.23750000000000002,10,23,0.46,1
0.2691913817342598,0.2689582867286301,-0.54,0.51,0.23600000000000002,5.87,0.24458333333333335,8,23,0.41,1
0.36462035050172387,0.3643813387098741,-0.69,0.74,0.2892,7.35,0.30624999999999997,9,24,0.74,1
0.26468849616105344,0.2641290593630318,-0.47,0.48,0.22039999999999998,5.1,0.2125,9,24,0.43,1
0.19937903600930565,0.199107609096187,-0.31,0.46,0.1696,4.29,0.17875,10,23,0.28,1
0.25737909783041824,0.25699805446734414,-0.52,0.51,0.20919999999999997,5.51,0.22958333333333333,9,22,0.52,1
0.20483163818121458,0.20482812306907466,-0.42,0.41,0.1532,3.99,0.16625,11,23,0.42,1
0.3226205201161265,0.3226083693892643,-0.6,0.62,0.278,7.02,0.2925,11,24,0.62,1
0.24651977608297473,0.24637662226761692,-0.47,0.46,0.2052,5.07,0.21125000000000002,10,22,0.37,1
0.2707101771267567,0.27064367718459637,-0.51,0.46,0.23159999999999997,5.4399999999999995,0.22666666666666666,8,24,0.37,1
0.3377277009663258,0.3376743993849697,-0.55,0.59,0.2764,6.39,0.26625,7,22,0.51,1
0.23784028254271816,0.23784028254271816,-0.42,0.4,0.19520000000000004,5.200000000000001,0.2166666666666667,8,24,0.26,1
0.20431348462595414,0.20431191839929455,-0.33,0.32,0.16960000000000006,4.74,0.1975,8,23,0.32,1
0.12647529403009902,0.1260793400997959,-0.28,0.2,0.106,2.21,0.09208333333333334,7,23,0.14,1
0.22512218904408332,0.2249799991110321,-0.42,0.38,0.19039999999999999,4.619999999999999,0.19249999999999998,9,23,0.38,1
0.25624207304812374,0.2561718173414086,-0.59,0.61,0.20120000000000002,5.29,0.22041666666666668,10,24,0.61,1
0.35099857549568486,0.3500637656199225,-0.68,0.74,0.2952,6.93,0.28875,9,24,0.41,1
0.16131955864060624,0.16035660260806225,-0.26,0.26,0.14240000000000003,3.68,0.15333333333333335,10,23,0.24,1
0.2429403218899654,0.24282141585947478,-0.48,0.5,0.1956,5.47,0.22791666666666666,10,24,0.37,1
0.1535838533179839,0.15301555476486695,-0.36,0.23,0.1284,3.1500000000000004,0.13125,8,23,0.17,1
0.3405172536010474,0.3404411256003011,-0.64,0.56,0.3,8.55,0.35625,10,24,0.48,1
0.8503528679318957,0.8406030216457707,-2.87,0.84,0.6156,14.950000000000001,0.6229166666666667,10,24,0.83,1
2.322303167116645,2.3172444325103037,-5.24,4.7,1.6388000000000003,40.629999999999995,1.6929166666666664,9,24,5.24,1
0.33860891896109296,0.3385937979349297,-0.61,0.64,0.2912,8.27,0.3445833333333333,10,24,0.54,1
2.1025213435301913,2.1017431241709823,-5.04,3.61,1.61,41.66,1.7358333333333331,8,24,2.7,1
2.684715999877827,2.683414064209994,-5.98,6.17,2.0108,52.349999999999994,2.18125,9,24,6.17,1
61.75360138485852,61.74883054957397,-114.91,109.88,48.12520000000001,1352.44,56.35166666666667,9,24,64.76,1
84.35402306944228,84.3520673880611,-107.11,125.54,76.6064,2193.73,91.40541666666667,10,24,113.59,1
90.44859731361234,90.44492720412792,-125.86,136.37,81.3492,2366.1,98.58749999999999,10,24,136.37,1
81.733787994929,81.73340074559484,-122.79,121.95,72.3556,2106.5,87.77083333333333,10,24,121.95,1
77.98469908898797,77.97270652119239,-113.18,106.49,69.67399999999999,2038.68,84.94500000000001,10,24,113.18,1
76.7617619651868,76.76152084371441,-118.21,107.35,69.0132,1961.7800000000002,81.74083333333334,10,24,104.78,1
46.77811847434653,46.748853768194145,-106.57,93.86,34.181599999999996,882.79,36.782916666666665,9,24,106.57,1
2.5488648453772513,2.5317126535213275,-6.95,4.65,2.0248000000000004,55.980000000000004,2.3325,9,24,6.95,1
0.41968559660774635,0.41912938336508926,-0.78,0.78,0.3472,9.73,0.4054166666666667,10,24,0.72,1
0.3116151472569971,0.31131822946946097,-0.58,0.59,0.26080000000000003,6.8100000000000005,0.28375,10,24,0.59,1
0.2687675575660128,0.2681641288464958,-0.53,0.56,0.20119999999999996,5.390000000000001,0.22458333333333336,10,24,0.56,1
0.23969981226525816,0.2394380086786557,-0.47,0.45,0.2064,5.02,0.20916666666666664,8,24,0.47,1
0.2473216529137714,0.24694744380130765,-0.46,0.52,0.20800000000000002,5.52,0.22999999999999998,9,24,0.3,1
0.24019159019416148,0.24019125712648245,-0.52,0.44,0.1996,5.59,0.23291666666666666,10,24,0.36,1
0.24287445316459286,0.24285831260222493,-0.42,0.47,0.2084,5.77,0.24041666666666664,11,23,0.47,1
0.24298971171636052,0.2427838544878963,-0.43,0.37,0.21559999999999999,4.6899999999999995,0.19541666666666666,7,24,0.37,1
0.2416112580158466,0.2416059601913827,-0.49,0.45,0.18560000000000001,3.9100000000000006,0.16291666666666668,8,21,0.49,1
0.21592591322025248,0.21549719255711894,-0.4,0.34,0.192,5.050000000000001,0.2104166666666667,8,24,0.4,1
0.24715177523133433,0.24715145154338058,-0.43,0.46,0.198,5.13,0.21375,9,23,0.24,1
0.26069138842700573,0.26064719449861723,-0.49,0.42,0.2216,5.65,0.2354166666666667,9,24,0.4,1
0.23002608547727796,0.23000382605513325,-0.41,0.34,0.2024,5.42,0.22583333333333333,9,23,0.41,1
0.21649018453500382,0.2164868587235724,-0.47,0.48,0.1692,4.49,0.18708333333333335,9,22,0.23,1
0.21619435700313733,0.21616438189489035,-0.37,0.42,0.1884,5.21,0.21708333333333332,9,24,0.42,1
0.19984994370777293,0.19984634097225798,-0.38,0.4,0.1708,4.57,0.19041666666666668,10,23,0.36,1
0.2559609345193129,0.25587059229227577,-0.44,0.42,0.21960000000000002,5.66,0.23583333333333334,8,24,0.44,1
0.20933227175951633,0.20916366797319272,-0.37,0.44,0.17959999999999998,4.62,0.1925,9,23,0.44,1
0.24211567483333252,0.2420201644491632,-0.49,0.48,0.1812,4.75,0.19791666666666666,8,24,0.2,1
0.23101515101828282,0.230343743131868,-0.35,0.37,0.2016,5.27,0.21958333333333332,9,23,0.28,1
0.2160370338622524,0.216,-0.42,0.42,0.18080000000000002,4.8500000000000005,0.20208333333333336,9,24,0.4,1
0.25257870060636545,0.2512369399590753,-0.37,0.36,0.22279999999999997,5.690000000000001,0.2370833333333334,8,24,0.33,1
0.22489108474992955,0.22130521909796888,-0.52,0.32,0.1848,3.63,0.15125,6,23,0.28,1
0.31338155657281425,0.31325797675398465,-0.69,0.72,0.2536,6.359999999999999,0.26499999999999996,9,22,0.72,1
0.2816309642067079,0.2813578504325053,-0.52,0.52,0.24600000000000002,6.69,0.27875,9,24,0.52,1
0.32,0.31999099987343393,-0.7,0.61,0.2656,7.329999999999999,0.3054166666666666,10,24,0.43,1
0.2224140283345455,0.22233308345813046,-0.45,0.41,0.18919999999999998,5.12,0.21333333333333335,10,22,0.33,1
0.2480483823773096,0.24801612850780488,-0.51,0.45,0.20079999999999998,5.46,0.2275,9,24,0.19,1
0.2542911716910361,0.25404440556721575,-0.4,0.48,0.22560000000000002,6.41,0.26708333333333334,10,24,0.48,1
0.24218174993174033,0.2420862656162055,-0.44,0.41,0.21,6.05,0.2520833333333333,10,24,0.39,1
0.2651867266663247,0.26516228992826263,-0.45,0.46,0.22840000000000005,6.6899999999999995,0.27875,11,24,0.39,1
0.28774989139876317,0.2875618889908745,-0.49,0.55,0.23919999999999997,6.18,0.2575,9,23,0.39,1
0.20266228065429442,0.20235256361113885,-0.41,0.37,0.16240000000000002,4.359999999999999,0.18166666666666664,10,23,0.41,1
0.2083554654910689,0.20835508153150478,-0.37,0.39,0.174,4.739999999999999,0.19749999999999998,10,23,0.39,1
0.25083062014036484,0.25071545624472374,-0.38,0.45,0.226,6.24,0.26,10,23,0.37,1
0.23976655313033135,0.23974519807495626,-0.47,0.39,0.2,5.3,0.22083333333333333,10,24,0.47,1
0.1844451137872728,0.1843197222220129,-0.37,0.36,0.15,3.9199999999999995,0.1633333333333333,8,24,0.37,1
0.1572641090649739,0.15717811552503103,-0.3,0.26,0.13799999999999998,3.7600000000000002,0.15666666666666668,9,24,0.26,1
0.16203703280423276,0.16196592234170742,-0.29,0.37,0.12960000000000002,3.1799999999999997,0.13249999999999998,8,22,0.37,1
0.1827347804880067,0.1827190192618163,-0.3,0.32,0.1528,4.19,0.17458333333333334,9,22,0.23,1
0.2823047998175022,0.28226398991015483,-0.49,0.49,0.24479999999999996,6.99,0.29125,10,24,0.34,1
0.2451040595339049,0.24465682087364743,-0.42,0.45,0.20120000000000002,5.1,0.2125,9,23,0.45,1
0.1921041384249699,0.19150185377692822,-0.48,0.42,0.15520000000000003,3.67,0.15291666666666667,9,24,0.48,1
0.19214577799160718,0.19197916553626335,-0.33,0.35,0.16879999999999998,3.8,0.15833333333333333,7,23,0.23,1
0.16092234151913154,0.1604742970073401,-0.27,0.29,0.13520000000000001,3.18,0.1325,10,23,0.27,1
0.23996666435153027,0.23995466238437627,-0.48,0.4,0.212,4.83,0.20125,7,24,0.48,1
0.22678624296901254,0.22667192150771562,-0.45,0.51,0.17680000000000004,4.5200000000000005,0.18833333333333335,11,23,0.51,1
0.2028299780604435,0.20249799999012333,-0.32,0.36,0.17240000000000003,4.680000000000001,0.19500000000000003,10,23,0.36,1
0.11317243480636087,0.11299132710080008,-0.19,0.2,0.09519999999999999,2.58,0.1075,11,24,0.19,1
0.2042645343665904,0.20424534266415967,-0.43,0.42,0.1636,4.5200000000000005,0.18833333333333335,12,24,0.42,1
0.18717905865774623,0.18676787732369826,-0.33,0.41,0.15,3.9099999999999997,0.16291666666666665,10,24,0.29,1
0.15293135715084724,0.15290572258748197,-0.38,0.26,0.13,3.48,0.145,10,24,0.38,1
0.26657831869827675,0.2663429368314467,-0.55,0.49,0.22479999999999997,5.86,0.24416666666666667,9,24,0.55,1
0.16931627210637493,0.16835676404587968,-0.35,0.43,0.13080000000000003,2.76,0.11499999999999999,7,24,0.17,1
0.20706520712084878,0.2064767299237374,-0.41,0.35,0.17000000000000004,4.550000000000001,0.18958333333333335,10,24,0.41,1
0.22354417907876736,0.22352664270730682,-0.45,0.45,0.1852,5.04,0.21,12,24,0.39,1
0.24637369989509839,0.24637077748791555,-0.51,0.47,0.1956,5.279999999999999,0.21999999999999997,10,23,0.51,1
0.2045287265887117,0.20433932563263488,-0.32,0.36,0.17759999999999998,4.41,0.18375,8,23,0.29,1
0.19954949260772376,0.19945926902503178,-0.39,0.41,0.15,3.7700000000000005,0.15708333333333335,9,23,0.17,1
0.23128337596982623,0.23106708982457888,-0.37,0.39,0.2004,5.59,0.23291666666666666,11,24,0.39,1
0.3146617231250093,0.3143847324537246,-0.51,0.54,0.278,7.57,0.3154166666666667,9,24,0.34,1
0.18008886695184684,0.1799448804495421,-0.34,0.37,0.14800000000000002,3.71,0.15458333333333332,10,24,0.37,1
0.23950782868207043,0.2385677262330343,-0.41,0.45,0.2036,4.74,0.1975,8,23,0.42,1
0.2674696244435992,0.2668080958291933,-0.47,0.54,0.22599999999999998,5.3,0.22083333333333333,8,24,0.42,1
0.13959942693292118,0.13945264429188858,-0.28,0.24,0.11840000000000002,3.32,0.13833333333333334,10,23,0.17,1
0.31571506140822614,0.31532941505669904,-0.61,0.61,0.26599999999999996,6.7,0.2791666666666667,9,24,0.61,1
0.2665483070664678,0.2658559008184697,-0.52,0.47,0.23200000000000004,5.76,0.24,9,24,0.41,1
0.19866554809528503,0.19805211435377304,-0.39,0.42,0.1732,3.76,0.15666666666666665,7,24,0.24,1
0.20166308536764976,0.2015198253274352,-0.41,0.38,0.17000000000000004,4.03,0.1679166666666667,8,23,0.27,1
0.23628795991332271,0.23612403520184047,-0.49,0.49,0.20400000000000001,5.09,0.21208333333333332,9,24,0.28,1
0.25273701747072985,0.252645522422227,-0.44,0.48,0.22039999999999998,6.2,0.25833333333333336,10,24,0.34,1
0.24984795376388416,0.24984667298165092,-0.46,0.4,0.21839999999999996,6.03,0.25125000000000003,9,23,0.46,1
0.1905465822312224,0.18953585412791954,-0.34,0.38,0.1636,4.470000000000001,0.18625000000000003,11,24,0.3,1
0.3087847146476004,0.30761950523333204,-0.6,0.64,0.26280000000000003,5.92,0.24666666666666667,8,24,0.6,1
0.17217433025860737,0.17211809899019917,-0.29,0.35,0.15319999999999998,4.04,0.16833333333333333,9,23,0.35,1
0.31730742191130673,0.31714980687366023,-0.54,0.49,0.2836,7.8,0.325,9,23,0.54,1
0.20907414952595169,0.20833204266266867,-0.52,0.43,0.1648,4.15,0.1729166666666667,10,22,0.35,1
0.3009119472536775,0.2999210562798151,-0.48,0.51,0.258,7.1899999999999995,0.2995833333333333,10,24,0.45,1
0.23275738441561847,0.2327560095894411,-0.4,0.4,0.20079999999999998,5.59,0.23291666666666666,10,24,0.36,1
0.1866440462484673,0.18352111595127138,-0.54,0.37,0.126,2.77,0.11541666666666667,10,23,0.24,1
0.2890536282422347,0.2876942821816242,-0.61,0.63,0.2208,5.65,0.2354166666666667,9,24,0.63,1
0.1675111936558271,0.1675068953804589,-0.36,0.31,0.13799999999999998,3.66,0.1525,10,22,0.15,1
0.26520180994857484,0.264981810696508,-0.46,0.53,0.22760000000000002,6.51,0.27125,10,24,0.27,1
0.25165055136041325,0.25161875923706484,-0.54,0.4,0.21280000000000004,5.8100000000000005,0.24208333333333334,9,24,0.54,1
0.12834328965707556,0.12713079878613207,-0.26,0.18,0.1104,2.6100000000000003,0.10875000000000001,10,23,0.17,1
0.37380743705817304,0.3731594833311891,-0.62,0.73,0.322,8.52,0.355,9,24,0.73,1
0.30815580474818255,0.3081049171954255,-0.7,0.58,0.25120000000000003,6.529999999999999,0.2720833333333333,9,23,0.7,1
0.31744605840992896,0.317171499350115,-0.57,0.63,0.26999999999999996,7.17,0.29875,9,24,0.42,1
0.17477986154016717,0.1745375604275481,-0.32,0.34,0.1452,3.9800000000000004,0.16583333333333336,9,24,0.13,1
0.26326412592679616,0.26300844092918385,-0.53,0.62,0.22039999999999998,5.95,0.24791666666666667,9,23,0.29,1
0.2714700720153144,0.2710442030370692,-0.53,0.47,0.2184,5.41,0.22541666666666668,9,24,0.53,1
0.28265172916506276,0.2826491818491608,-0.49,0.46,0.2468,6.41,0.26708333333333334,9,22,0.28,1
0.20894975472586705,0.20883907680316918,-0.39,0.36,0.17800000000000002,4.98,0.20750000000000002,11,24,0.28,1
0.18587092295461385,0.18587049254790283,-0.4,0.35,0.14600000000000002,3.6399999999999997,0.15166666666666664,8,22,0.4,1
0.15591023058157538,0.1558974021592406,-0.36,0.28,0.1124,2.37,0.09875,7,22,0.36,1
0.16104657711357917,0.16059887919907784,-0.28,0.25,0.1368,3.3100000000000005,0.1379166666666667,9,23,0.27,1
0.16894969665554302,0.1683349042830987,-0.3,0.37,0.1368,3.39,0.14125000000000001,9,23,0.26,1
0.19394844675841053,0.19335190715376976,-0.4,0.37,0.16240000000000002,4.140000000000001,0.17250000000000001,8,22,0.4,1
0.1918749592833833,0.19183326093250877,-0.38,0.33,0.1672,4.08,0.17,9,23,0.38,1
0.17525980714356615,0.17525569890876588,-0.28,0.33,0.1444,3.8400000000000003,0.16,11,24,0.2,1
0.19713954448562573,0.19703563129545884,-0.36,0.35,0.1656,4.27,0.17791666666666664,9,24,0.36,1
0.2969377039043712,0.29664416394057036,-0.61,0.58,0.24359999999999996,6.539999999999999,0.27249999999999996,11,24,0.48,1
0.24868453912537467,0.24863016711573838,-0.41,0.48,0.2052,5.26,0.21916666666666665,10,23,0.48,1
0.26109002278907556,0.26091347224702677,-0.43,0.48,0.2216,5.960000000000001,0.24833333333333338,8,23,0.4,1
0.188435665413955,0.18714700104463336,-0.31,0.3,0.1628,4.83,0.20125,11,24,0.31,1
0.3523520966306289,0.3523484638819928,-0.64,0.72,0.28800000000000003,7.470000000000001,0.31125,9,24,0.72,1
0.22384816282471476,0.2238306502693498,-0.37,0.41,0.198,5.45,0.22708333333333333,9,24,0.41,1
0.28023561515267825,0.2802284782101919,-0.5,0.54,0.21720000000000003,5.359999999999999,0.2233333333333333,8,24,0.54,1
0.24555243839147678,0.24539470246930759,-0.48,0.46,0.20560000000000003,5.290000000000001,0.2204166666666667,10,24,0.32,1
0.30945758998609163,0.30914074464554164,-0.54,0.58,0.266,7.08,0.295,9,23,0.49,1
0.21676715618377246,0.21666047170630828,-0.39,0.39,0.1772,4.74,0.1975,10,24,0.21,1
0.37765592806150944,0.37753389251827446,-0.62,0.61,0.308,7.92,0.33,9,24,0.62,1
0.33753814599241966,0.3373899820682292,-0.62,0.64,0.29319999999999996,8.299999999999999,0.34583333333333327,10,23,0.62,1
0.1973017992822164,0.1972953116523553,-0.4,0.34,0.1656,4.33,0.18041666666666667,8,24,0.4,1
0.17881834357805687,0.1781711536697229,-0.38,0.36,0.1488,3.6100000000000003,0.15041666666666667,10,24,0.38,1
0.24786286531063906,0.24759127609833106,-0.43,0.49,0.21640000000000004,5.76,0.24,10,24,0.33,1
0.24875690945177784,0.24874533161448478,-0.49,0.51,0.196,4.6,0.19166666666666665,8,24,0.3,1
0.2606760441620979,0.2606748165818862,-0.55,0.55,0.20800000000000002,5.33,0.22208333333333333,9,24,0.55,1
0.24402458892496878,0.24402426108893352,-0.45,0.45,0.1972,5.529999999999999,0.23041666666666663,10,24,0.45,1
0.20972362766269328,0.20928220182327978,-0.37,0.4,0.16639999999999996,4.51,0.18791666666666665,11,24,0.4,1
0.24931105069771775,0.2492953268715641,-0.48,0.49,0.2148,5.609999999999999,0.23374999999999999,10,23,0.49,1
0.2742480628919738,0.2737572647437872,-0.44,0.45,0.24200000000000002,5.54,0.23083333333333333,8,22,0.45,1
0.3295026555279942,0.32923815088777303,-0.68,0.69,0.2692,7.26,0.3025,10,24,0.69,1
0.2145693361130616,0.21455591345847355,-0.33,0.34,0.19039999999999999,5.3100000000000005,0.22125000000000003,10,24,0.33,1
0.2846190436355234,0.28433107462955926,-0.48,0.51,0.228,5.4,0.225,7,23,0.51,1
0.15680561214446376,0.15680510195781258,-0.26,0.29,0.1364,3.8099999999999996,0.15874999999999997,9,24,0.24,1
0.2189977168830762,0.21878720255078907,-0.41,0.45,0.1816,4.28,0.17833333333333334,9,22,0.45,1
0.20199009876724158,0.20186173485829356,-0.38,0.46,0.16479999999999997,4.0200000000000005,0.1675,10,22,0.28,1
0.26809699737221976,0.26777184317997293,-0.44,0.72,0.2116,5.34,0.2225,9,23,0.42,1
0.3024103172843149,0.30154959791052616,-0.77,0.6,0.21799999999999997,5.08,0.21166666666666667,10,23,0.77,1
0.17915356541246952,0.1791089054179049,-0.35,0.38,0.14880000000000002,3.4299999999999997,0.14291666666666666,9,23,0.28,1
0.19580602646496864,0.19541299854410915,-0.3,0.33,0.17560000000000003,4.18,0.17416666666666666,8,24,0.33,1
0.1746310396235446,0.1745650595050453,-0.34,0.27,0.1488,3.0300000000000002,0.12625,7,23,0.34,1
0.1801554883982167,0.17980700764986887,-0.37,0.32,0.1552,3.44,0.14333333333333334,8,24,0.24,1
0.1856232744027537,0.1855612028415423,-0.44,0.37,0.144,3.74,0.15583333333333335,10,24,0.44,1
0.3114546515947386,0.3112940731848263,-0.5,0.52,0.2628,5.7,0.23750000000000002,7,24,0.5,1
0.27956394617332186,0.2794125265624288,-0.49,0.48,0.234,6.2700000000000005,0.26125000000000004,11,24,0.49,1
0.14386104406683556,0.14386104406683556,-0.23,0.27,0.1184,3.3499999999999996,0.1395833333333333,10,24,0.27,1
0.30272099365587446,0.30265333303963465,-0.54,0.5,0.2584,6.69,0.27875,10,23,0.43,1
0.2715511001634867,0.27142114877068807,-0.43,0.49,0.23639999999999997,6.58,0.27416666666666667,11,22,0.36,1
0.21339165869358623,0.2133901590983052,-0.31,0.37,0.1904,5.32,0.22166666666666668,10,24,0.37,1
0.27580427842946886,0.275790065085746,-0.54,0.5,0.23560000000000003,6.68,0.2783333333333333,10,24,0.5,1
0.21140482492128695,0.21137417060747984,-0.52,0.42,0.1716,4.85,0.2020833333333333,11,24,0.52,1
0.385507457774814,0.3840404145399284,-0.83,0.81,0.28959999999999997,7.52,0.3133333333333333,8,24,0.42,1
0.29834208553269853,0.2967892181330043,-0.54,0.58,0.23919999999999997,4.529999999999999,0.18874999999999997,6,22,0.58,1
0.1693635143707168,0.1693517050401324,-0.3,0.31,0.134,3.46,0.14416666666666667,9,21,0.17,1
0.17976651523573572,0.1797126595429493,-0.34,0.32,0.1508,4.27,0.17791666666666664,10,23,0.24,1
0.24143736247731004,0.2414370311282012,-0.48,0.49,0.19879999999999998,5.35,0.22291666666666665,8,24,0.4,1
0.12477179168385777,0.12474870740813308,-0.21,0.21,0.1056,2.64,0.11,8,24,0.21,1
0.26972578667973146,0.26958219525777294,-0.44,0.43,0.24400000000000002,5.81,0.24208333333333332,8,24,0.44,1
0.14922466284096608,0.14906964815145973,-0.26,0.39,0.1252,3.33,0.13875,10,24,0.39,1
0.1628987415543779,0.16289677713202308,-0.33,0.3,0.14400000000000002,3.4,0.14166666666666666,8,24,0.18,1
0.1978585353225885,0.19782578193956418,-0.35,0.37,0.1692,4.13,0.17208333333333334,7,24,0.37,1
0.11539497389401325,0.11539428062083493,-0.25,0.24,0.08600000000000002,2.0100000000000002,0.08375,10,24,0.25,1
0.19533560863293717,0.1953155395763481,-0.43,0.45,0.15719999999999998,4.0,0.16666666666666666,9,23,0.16,1
0.26027677575995906,0.26009967320240907,-0.46,0.44,0.22719999999999999,5.5,0.22916666666666666,8,24,0.33,1
0.1869117438792972,0.1857508008058108,-0.4,0.39,0.1552,3.66,0.1525,9,24,0.23,1
0.14472042012100436,0.144665130560201,-0.23,0.33,0.1184,3.29,0.13708333333333333,11,24,0.33,1
0.12536347155371855,0.12528623228431765,-0.21,0.27,0.10280000000000002,2.38,0.09916666666666667,9,24,0.21,1
0.26218314209727517,0.26218039591090714,-0.48,0.56,0.20440000000000003,5.5200000000000005,0.23,10,22,0.23,1
0.19923855048659636,0.19915983530822676,-0.37,0.41,0.1704,4.390000000000001,0.1829166666666667,8,24,0.31,1
0.3117883897774258,0.3116752155690279,-0.56,0.63,0.2548,6.29,0.26208333333333333,7,23,0.54,1
0.2347594513539338,0.23397298989413287,-0.5,0.45,0.188,4.59,0.19125,7,24,0.5,1
0.1865475810617763,0.18610792567754872,-0.42,0.38,0.1368,3.13,0.13041666666666665,9,22,0.22,1
0.2934280150224242,0.2931309604937698,-0.55,0.52,0.2588,6.74,0.2808333333333333,9,24,0.44,1
0.2745396146278347,0.2744344001760712,-0.49,0.43,0.2404,5.94,0.24750000000000003,8,23,0.31,1
0.301483001179171,0.3011577659632904,-0.53,0.46,0.25560000000000005,6.28,0.26166666666666666,8,23,0.46,1
0.3216706390082875,0.3205854644240752,-0.57,0.53,0.2808,7.6,0.31666666666666665,10,24,0.52,1
0.2171727423043693,0.21690403407959014,-0.43,0.34,0.18680000000000002,4.34,0.18083333333333332,8,22,0.43,1
0.22051757299589528,0.22045625416394973,-0.44,0.42,0.17800000000000002,4.66,0.19416666666666668,9,22,0.42,1
0.14062716664997557,0.1404814578512054,-0.24,0.25,0.11440000000000002,2.79,0.11625,7,24,0.23,1
0.2751581363507174,0.2750836963544005,-0.49,0.62,0.2304,6.69,0.27875,11,24,0.27,1
0.2425860672009009,0.24252142173424596,-0.6,0.47,0.1832,4.59,0.19125,10,21,0.6,1
0.1867940041864299,0.18648152723527336,-0.41,0.38,0.1388,3.4,0.14166666666666666,9,23,0.38,1
0.29160932769717773,0.29094989259320925,-0.5,0.53,0.2588,7.130000000000001,0.29708333333333337,9,24,0.53,1
0.17007057358637914,0.17004752276937174,-0.3,0.26,0.1436,3.66,0.1525,8,24,0.25,1
0.26756681408575317,0.26713472256522547,-0.57,0.6,0.2232,5.85,0.24375,9,23,0.26,1
0.28423933577181043,0.2838743383964109,-0.58,0.58,0.23919999999999997,6.26,0.2608333333333333,9,23,0.43,1
0.15295751043999115,0.1528690943258316,-0.28,0.33,0.1284,3.34,0.13916666666666666,8,23,0.2,1
0.2479032069175387,0.2479032069175387,-0.45,0.44,0.19920000000000002,5.07,0.21125000000000002,8,24,0.45,1
0.3730737192566638,0.37261969888882684,-0.58,0.64,0.3336,8.63,0.35958333333333337,9,24,0.55,1
0.13728801841384414,0.13593880976380512,-0.18,0.38,0.10640000000000001,1.9700000000000002,0.08208333333333334,7,23,0.38,1
0.06446704584514479,0.06440621088062859,-0.13,0.11,0.055600000000000004,1.42,0.059166666666666666,8,22,0.1,1
0.2789623630527961,0.2786498878521217,-0.44,0.48,0.2404,6.359999999999999,0.26499999999999996,10,23,0.39,1
0.24331050121192882,0.2428352527949762,-0.48,0.49,0.21439999999999995,5.57,0.23208333333333334,9,24,0.29,1
0.15317963311093286,0.1526438993212634,-0.25,0.3,0.12960000000000002,3.2800000000000002,0.1366666666666667,8,23,0.23,1
0.2391819391174844,0.23914848943700232,-0.53,0.49,0.1832,4.8100000000000005,0.2004166666666667,9,23,0.53,1
0.17159254063041318,0.17138681396186814,-0.3,0.36,0.15,3.88,0.16166666666666665,9,24,0.36,1
0.20522183119736556,0.20521208541409058,-0.38,0.36,0.1668,4.5,0.1875,11,23,0.3,1
0.2094755355644186,0.2089233352213199,-0.45,0.44,0.16160000000000005,3.99,0.16625,9,23,0.21,1
0.1955198199671839,0.19512621556315798,-0.37,0.33,0.158,4.4,0.18333333333333335,9,24,0.37,1
0.18009997223764362,0.18000000000000002,-0.38,0.44,0.1444,3.65,0.15208333333333332,10,22,0.21,1
0.2285957129956728,0.2285957129956728,-0.42,0.41,0.19360000000000002,5.35,0.22291666666666665,10,24,0.35,1
0.17210461934532728,0.17176542143283674,-0.34,0.27,0.1476,3.54,0.1475,8,23,0.34,1
0.35095868702740496,0.35061180812973197,-0.73,0.74,0.28919999999999996,6.640000000000001,0.27666666666666667,7,24,0.74,1
0.14524462124292245,0.14467950787862116,-0.28,0.45,0.1032,2.5,0.10416666666666667,11,22,0.19,1
0.35469423451756305,0.35417419442980314,-0.68,0.68,0.2976,8.16,0.34,9,24,0.68,1
0.22884929538890872,0.22880699290012968,-0.48,0.52,0.17560000000000003,4.74,0.1975,12,22,0.18,1
0.32366031576330145,0.32352953497323855,-0.6,0.64,0.27080000000000004,7.66,0.31916666666666665,10,24,0.45,1
0.2912730677560148,0.2909168953498576,-0.48,0.53,0.24400000000000002,6.33,0.26375,9,24,0.48,1
0.19632625906892842,0.19605060571189267,-0.45,0.38,0.1408,3.4400000000000004,0.14333333333333334,10,23,0.36,1
0.2720588171701112,0.27204823101795755,-0.49,0.47,0.22719999999999999,6.32,0.26333333333333336,10,24,0.44,1
0.29274562336608895,0.29273879141651177,-0.48,0.46,0.26039999999999996,7.07,0.29458333333333336,9,22,0.39,1
0.2766441757926597,0.2766207512100276,-0.49,0.41,0.2404,6.709999999999999,0.2795833333333333,10,23,0.49,1
0.2846190436355234,0.2846179193234326,-0.44,0.49,0.2592,6.71,0.27958333333333335,9,24,0.44,1
0.1808535318980528,0.18072564842877173,-0.29,0.34,0.1516,3.3000000000000003,0.1375,7,21,0.28,1
0.16773789077009404,0.16761575104983423,-0.34,0.35,0.1424,3.71,0.15458333333333332,10,23,0.35,1
0.17321662737739701,0.17320508075688773,-0.31,0.33,0.1508,3.84,0.16,8,24,0.27,1
0.2860908946471383,0.2860360816400616,-0.45,0.48,0.2576,6.62,0.2758333333333333,9,24,0.34,1
0.2913211286535874,0.29122197719265625,-0.61,0.54,0.2228,5.94,0.24750000000000003,9,23,0.33,1
0.2464467488119898,0.246441554937474,-0.49,0.56,0.20320000000000005,5.43,0.22624999999999998,10,24,0.21,1
0.22250393254951698,0.22227910383119687,-0.49,0.43,0.18280000000000002,4.92,0.205,9,24,0.25,1
0.21586106642931235,0.21579842446134773,-0.34,0.42,0.1876,4.43,0.18458333333333332,8,24,0.34,1
0.19993999099729898,0.19916385214189847,-0.42,0.34,0.1696,3.8600000000000003,0.16083333333333336,8,22,0.32,1
0.3340718485595576,0.33406586176980135,-0.55,0.56,0.2836,6.08,0.25333333333333335,7,23,0.44,1
0.1993589727100338,0.19894763130029972,-0.32,0.46,0.1584,4.0,0.16666666666666666,8,24,0.46,1
0.15835403373454054,0.1579285914582917,-0.31,0.32,0.1364,3.71,0.15458333333333332,9,22,0.19,1
0.1947819293466414,0.19474865853196524,-0.36,0.33,0.16759999999999997,4.640000000000001,0.19333333333333336,10,24,0.33,1
0.1558075736284986,0.15576597831362277,-0.28,0.26,0.13,3.5100000000000007,0.14625000000000002,9,23,0.17,1
0.19247857023575377,0.19245196803358494,-0.37,0.41,0.1552,3.5599999999999996,0.14833333333333332,9,22,0.2,1
0.0744043009509531,0.07367387596699389,-0.13,0.17,0.06,1.56,0.065,10,20,0.13,1
0.20767281959852135,0.2075973024872915,-0.41,0.41,0.1736,4.74,0.1975,9,24,0.31,1
0.21842161065242605,0.21842124438799446,-0.4,0.47,0.17,4.72,0.19666666666666666,11,24,0.47,1
0.19695684806576289,0.19694222503059114,-0.36,0.41,0.1672,4.49,0.18708333333333335,9,24,0.2,1
0.2093895890439637,0.2091873801164879,-0.47,0.41,0.1604,4.26,0.1775,10,23,0.19,1
0.17621577681921674,0.17608452515766398,-0.39,0.28,0.1516,3.9000000000000004,0.1625,9,24,0.39,1
0.21635156574427652,0.2156983078283184,-0.4,0.43,0.18,4.359999999999999,0.18166666666666664,8,23,0.21,1
0.3079480475664686,0.3077983755642645,-0.52,0.52,0.27840000000000004,6.62,0.2758333333333333,8,24,0.52,1
0.1716741098709995,0.17162750362339946,-0.38,0.35,0.1328,3.4899999999999998,0.14541666666666667,10,21,0.38,1
0.3249369169546606,0.3247950738542689,-0.6,0.61,0.28,7.699999999999999,0.3208333333333333,9,24,0.45,1
0.24004166305039631,0.23958497448713265,-0.38,0.39,0.20279999999999998,5.35,0.22291666666666665,9,24,0.39,1
0.25958428303732106,0.2595830502941207,-0.43,0.42,0.2192,6.0,0.25,9,24,0.42,1
0.1392264342716569,0.138209116920701,-0.22,0.3,0.11280000000000001,2.49,0.10375000000000001,9,21,0.22,1
0.20828826179120127,0.2081899133003326,-0.38,0.52,0.16799999999999998,4.390000000000001,0.1829166666666667,7,24,0.34,1
0.28088431782497225,0.279564232333108,-0.54,0.54,0.22880000000000003,5.5600000000000005,0.2316666666666667,9,24,0.54,1
0.23081594399001124,0.2301130157118454,-0.41,0.4,0.20440000000000005,5.09,0.21208333333333332,9,24,0.4,1
0.19170811146114813,0.19150603123661666,-0.33,0.35,0.1568,4.390000000000001,0.1829166666666667,9,23,0.35,1
0.08027452896155791,0.08004998438475801,-0.16,0.16,0.066,1.8400000000000003,0.07666666666666667,12,22,0.1,1
0.15034626699722212,0.15032019159114984,-0.27,0.25,0.1316,3.13,0.13041666666666665,7,23,0.23,1
0.14130817386124556,0.1391149165258708,-0.21,0.3,0.11280000000000001,2.21,0.09208333333333334,8,23,0.11,1
0.2135321989771098,0.21263075976913598,-0.38,0.32,0.1812,3.63,0.15125,6,22,0.35,1
0.2720588171701112,0.27196352696639303,-0.48,0.51,0.2232,6.11,0.25458333333333333,9,24,0.21,1
0.3140127385951086,0.31396968006481135,-0.51,0.55,0.27160000000000006,7.420000000000001,0.3091666666666667,10,23,0.51,1
0.24968780506864968,0.2493594995182658,-0.46,0.44,0.20400000000000001,5.5,0.22916666666666666,10,23,0.46,1
0.26603007348794233,0.26459448217980663,-0.47,0.49,0.21960000000000002,5.84,0.24333333333333332,10,23,0.49,1
0.2227195545972558,0.22232804591414013,-0.36,0.43,0.18439999999999998,5.15,0.21458333333333335,11,23,0.43,1
0.20377438504385184,0.20360117877851294,-0.37,0.35,0.1716,4.180000000000001,0.1741666666666667,8,23,0.29,1
0.26731255114565794,0.2670430676875923,-0.45,0.44,0.23520000000000002,6.43,0.26791666666666664,11,23,0.41,1
0.3187914678908455,0.3187349996470422,-0.64,0.58,0.26439999999999997,6.9799999999999995,0.29083333333333333,9,24,0.64,1
0.2909226701376158,0.2908607914449798,-0.48,0.47,0.25880000000000003,6.75,0.28125,9,23,0.44,1
0.2126687565205571,0.21253291509787373,-0.43,0.4,0.174,4.359999999999999,0.18166666666666664,9,23,0.17,1
0.23389741341023848,0.23356849102565183,-0.49,0.38,0.2004,4.970000000000001,0.20708333333333337,7,24,0.35,0
0.2741897153432273,0.273745575306707,-0.47,0.48,0.23079999999999998,6.5600000000000005,0.2733333333333334,10,24,0.48,0
0.2922464713217253,0.29217638508270993,-0.47,0.52,0.2504,6.78,0.28250000000000003,10,24,0.52,0
0.21920766409959302,0.2184,-0.4,0.32,0.1788,4.67,0.19458333333333333,9,22,0.4,0
0.3122627099094607,0.3122194100308307,-0.62,0.6,0.2532,6.42,0.2675,9,23,0.3,0
0.1900210514653574,0.19001726237371172,-0.34,0.34,0.16440000000000002,4.59,0.19125,10,24,0.32,0
0.15657586020839867,0.15646085772486357,-0.31,0.31,0.12440000000000001,3.24,0.135,9,23,0.18,0
0.17630655121123548,0.1763060974555333,-0.36,0.38,0.14679999999999999,4.09,0.17041666666666666,10,24,0.16,0
0.32392591745644556,0.3236056859821842,-0.73,0.84,0.24960000000000002,6.59,0.27458333333333335,11,24,0.28,0
0.5155501915429768,0.5149912620617946,-0.95,0.88,0.4632,11.129999999999999,0.46374999999999994,8,24,0.73,0
0.15384407690905752,0.15237637612175978,-0.29,0.45,0.12040000000000001,2.8100000000000005,0.11708333333333336,8,22,0.45,0
0.251666445916018,0.25051946032194783,-0.42,0.42,0.22320000000000004,5.66,0.23583333333333334,8,24,0.42,0
0.24746716953971895,0.24659148403787184,-0.41,0.46,0.2152,4.549999999999999,0.1895833333333333,6,23,0.39,0
0.20363693181738915,0.20352336475205987,-0.4,0.38,0.1668,4.16,0.17333333333333334,10,24,0.4,0
0.16268988905276197,0.16268939731894025,-0.3,0.3,0.1396,3.76,0.15666666666666665,9,24,0.3,0
0.3073694844970789,0.30736922422389656,-0.51,0.56,0.2644,7.3100000000000005,0.3045833333333334,9,24,0.56,0
0.2699259157620846,0.26990190810737147,-0.59,0.51,0.2212,6.16,0.25666666666666665,10,23,0.59,0
0.3063396807467162,0.3063080802068401,-0.57,0.59,0.2628,7.21,0.30041666666666667,9,24,0.49,0
0.25028783430282825,0.25027984337537057,-0.49,0.45,0.2212,5.55,0.23124999999999998,9,24,0.34,0
0.15632018423735305,0.1562582477823171,-0.32,0.29,0.12360000000000002,3.34,0.13916666666666666,11,23,0.2,0
0.13883803513446882,0.13874062130464893,-0.29,0.27,0.11560000000000001,2.66,0.11083333333333334,8,23,0.2,0
0.18835073665903196,0.18799319136607048,-0.38,0.4,0.1564,4.25,0.17708333333333334,10,24,0.4,0
0.19267589366602142,0.19267547846054514,-0.36,0.37,0.16519999999999999,4.35,0.18125,10,23,0.36,0
0.11976643937263895,0.11924160347798078,-0.2,0.25,0.1,2.56,0.10666666666666667,11,24,0.17,0
0.19284190415985836,0.1917598498122065,-0.34,0.29,0.1684,3.87,0.16125,8,24,0.29,0
0.21765109694187162,0.2174212501113909,-0.46,0.44,0.1852,4.85,0.2020833333333333,10,24,0.46,0
0.2038332651948646,0.20335191171956066,-0.47,0.42,0.1668,4.17,0.17375,10,24,0.23,0
0.28318192032684575,0.28253028156287957,-0.47,0.44,0.244,6.36,0.265,9,23,0.44,0
0.16483931569865243,0.164730082255792,-0.31,0.42,0.12359999999999999,3.1799999999999997,0.13249999999999998,9,21,0.42,0
0.23751210495467384,0.23745517471725058,-0.4,0.42,0.21000000000000005,5.720000000000001,0.23833333333333337,9,23,0.42,0
0.21601851772475433,0.21598148068758116,-0.37,0.34,0.1888,5.260000000000001,0.2191666666666667,10,23,0.34,0
0.32748129717588453,0.32748105288703344,-0.63,0.57,0.2836,7.839999999999999,0.3266666666666666,10,24,0.63,0
0.23017384734152574,0.2301707192498646,-0.37,0.46,0.20199999999999996,5.319999999999999,0.22166666666666665,10,23,0.38,0
0.2000099997500125,0.19991998399359678,-0.33,0.36,0.16999999999999996,4.85,0.2020833333333333,10,23,0.36,0
0.1512349166032765,0.1510231770292229,-0.3,0.27,0.13119999999999998,3.04,0.12666666666666668,8,24,0.19,0
0.21337291299506597,0.21264580879951525,-0.33,0.35,0.18719999999999998,5.279999999999999,0.21999999999999997,10,24,0.31,0
0.26914680009244024,0.26894579379495787,-0.53,0.5,0.228,5.6,0.2333333333333333,8,22,0.3,0
0.24525089194537092,0.24513310669919722,-0.38,0.45,0.21160000000000004,5.720000000000001,0.23833333333333337,10,24,0.4,0
0.33286033106995494,0.3328312485329465,-0.59,0.63,0.278,7.63,0.3179166666666667,9,24,0.38,0
0.17106723824274478,0.17105975564112091,-0.29,0.26,0.1488,3.4499999999999997,0.14375,8,21,0.29,0
0.22125098869835588,0.22125098869835588,-0.38,0.38,0.1968,5.49,0.22875,10,23,0.27,0
0.23859589267210782,0.23836912551754685,-0.45,0.54,0.19119999999999998,4.67,0.19458333333333333,8,23,0.4,0
0.2156849554326866,0.21475567512873786,-0.48,0.37,0.1776,4.18,0.17416666666666666,10,23,0.48,0
0.13196969349058896,0.1319672686691666,-0.27,0.31,0.10239999999999999,2.54,0.10583333333333333,9,23,0.31,0
0.17643128974192757,0.1763151723477024,-0.36,0.36,0.1504,3.4699999999999998,0.1445833333333333,7,23,0.27,0
0.28691462144686875,0.28651171005737275,-0.52,0.51,0.2488,6.2,0.25833333333333336,8,24,0.37,0
0.2743063980296486,0.274282773793762,-0.6,0.61,0.21559999999999999,5.8500000000000005,0.24375000000000002,12,23,0.61,0
0.2355504192312126,0.23513400434645773,-0.43,0.45,0.1772,4.58,0.19083333333333333,10,23,0.45,0
0.4044106823514928,0.4043946587184356,-0.7,0.68,0.3428,9.120000000000001,0.38000000000000006,9,24,0.62,0
0.17410341754256292,0.17357142621987065,-0.28,0.38,0.1328,3.13,0.13041666666666665,11,23,0.28,0
0.19607141556075938,0.19557095898931415,-0.43,0.37,0.154,3.8,0.15833333333333333,8,23,0.43,0
0.1903890753168364,0.19030669982951204,-0.43,0.42,0.14479999999999998,3.4000000000000004,0.1416666666666667,9,20,0.14,0
0.15396103403134184,0.15349267083479917,-0.32,0.3,0.11919999999999999,3.28,0.13666666666666666,9,24,0.28,0
0.23343521585227883,0.23343487314452396,-0.41,0.42,0.1916,5.46,0.2275,11,24,0.32,0
0.2850052631092977,0.2850049824125887,-0.6,0.57,0.23720000000000002,6.6899999999999995,0.27875,10,24,0.31,0
0.2549980392081477,0.2549779598318254,-0.4,0.42,0.21919999999999998,6.34,0.26416666666666666,10,24,0.42,0
0.26548069609672187,0.26499811320083017,-0.43,0.51,0.23600000000000002,6.2,0.25833333333333336,9,24,0.42,0
0.21318536535137678,0.20771133815947554,-0.41,0.43,0.17120000000000002,3.1799999999999997,0.13249999999999998,6,23,0.26,0
0.2760144923731361,0.27563860397266565,-0.52,0.45,0.23119999999999996,6.33,0.26375,10,24,0.44,0
0.22648620267027306,0.22647348630689645,-0.39,0.47,0.1936,5.55,0.23124999999999998,11,24,0.47,0
0.3060784213236863,0.3059150208799823,-0.53,0.49,0.2516,6.73,0.2804166666666667,9,24,0.53,0
0.21508137994721904,0.21501851083104448,-0.37,0.28,0.1932,5.33,0.22208333333333333,9,24,0.3,0
0.28108361745217386,0.28048073017588926,-0.5,0.54,0.24480000000000002,6.33,0.26375,9,24,0.38,0
0.25295058806019804,0.25282404948896775,-0.56,0.58,0.19680000000000003,5.12,0.21333333333333335,10,24,0.22,0
0.2863564212655271,0.28634636369264405,-0.53,0.55,0.24400000000000002,6.540000000000001,0.2725,10,24,0.45,0
0.26135033958271414,0.26070182201127784,-0.51,0.48,0.21600000000000003,5.83,0.24291666666666667,11,23,0.48,0
0.3100322563863316,0.3100229668911644,-0.56,0.62,0.2536,7.1,0.29583333333333334,10,24,0.56,0
0.23988330496305907,0.2395829710142188,-0.47,0.4,0.19759999999999997,4.630000000000001,0.1929166666666667,7,22,0.42,0
0.22763128080296874,0.22761862841164823,-0.46,0.45,0.19519999999999998,5.140000000000001,0.2141666666666667,9,24,0.31,0
0.17137094269449532,0.171251394154909,-0.3,0.41,0.13920000000000002,3.51,0.14625,10,23,0.3,0
0.23231013753170568,0.231957237438283,-0.47,0.41,0.196,4.48,0.18666666666666668,8,23,0.46,0
0.2669981273342568,0.2664174168480732,-0.5,0.42,0.2336,5.9,0.24583333333333335,9,23,0.47,0
0.1586820720812531,0.1577471394352367,-0.34,0.26,0.1308,3.33,0.13875,8,23,0.24,0
0.28838169151317494,0.28817938857593545,-0.47,0.45,0.2516,6.9399999999999995,0.2891666666666666,10,24,0.47,0
0.27776968877111125,0.27755965124635823,-0.54,0.55,0.2212,5.62,0.23416666666666666,9,23,0.55,0
0.22116057514846538,0.22087679823829393,-0.42,0.37,0.18960000000000002,4.9,0.2041666666666667,9,24,0.42,0
0.09579144011862438,0.0953091810897565,-0.22,0.17,0.0744,1.7600000000000002,0.07333333333333335,10,22,0.13,0
0.11023611023616536,0.11013155769351489,-0.21,0.21,0.0928,2.19,0.09125,8,21,0.21,0
0.2651867266663247,0.2639866663299493,-0.45,0.49,0.22440000000000002,5.1899999999999995,0.21624999999999997,8,24,0.45,0
0.2434994866524363,0.24349915810942757,-0.43,0.43,0.20920000000000002,4.699999999999999,0.1958333333333333,7,23,0.35,0
0.1895362762111781,0.18952572384771413,-0.44,0.4,0.1348,3.5300000000000002,0.14708333333333334,8,22,0.44,0
0.3161581882539182,0.31613769152064103,-0.55,0.5,0.27319999999999994,6.850000000000001,0.2854166666666667,9,24,0.49,0
0.2712637093309756,0.2704023668535466,-0.54,0.56,0.22080000000000002,5.07,0.21125000000000002,7,24,0.56,0
0.14724129855444767,0.1472412985544477,-0.29,0.35,0.12,2.81,0.11708333333333333,8,23,0.35,0
0.13509996299037244,0.13378549996169242,-0.25,0.36,0.10279999999999999,2.2300000000000004,0.09291666666666669,9,23,0.18,0
0.31931802329339315,0.31913533179514925,-0.57,0.57,0.26999999999999996,6.23,0.25958333333333333,7,24,0.37,0
0.20353869410998982,0.20281065060790077,-0.39,0.34,0.1628,4.01,0.16708333333333333,9,23,0.38,0
0.1911543878648879,0.19058058662938362,-0.43,0.35,0.1596,3.42,0.1425,8,22,0.32,0
0.28368292158676034,0.28344565616710377,-0.47,0.51,0.24600000000000002,6.6899999999999995,0.27875,10,23,0.35,0
0.19562208464281328,0.19561186058110075,-0.34,0.32,0.16920000000000002,4.29,0.17875,9,22,0.29,0
0.2879236009777594,0.2878010423886613,-0.56,0.58,0.2132,5.23,0.21791666666666668,9,23,0.41,0
0.2267333235322942,0.22659214461229674,-0.46,0.51,0.18880000000000002,4.64,0.19333333333333333,8,24,0.21,0
0.2181559075523741,0.2173785638005735,-0.48,0.42,0.17920000000000003,4.35,0.18125,10,24,0.4,0
0.3631253227193058,0.3626789213615812,-0.75,0.68,0.2964,7.390000000000001,0.30791666666666667,10,23,0.75,0
0.2851455768550514,0.28494097634422466,-0.59,0.53,0.21799999999999997,5.7700000000000005,0.2404166666666667,11,24,0.52,0
0.2234367919569201,0.2232129028528593,-0.48,0.44,0.18360000000000004,4.5600000000000005,0.19000000000000003,9,24,0.25,0
0.19385561637466167,0.19376274151652584,-0.35,0.34,0.1604,4.390000000000001,0.1829166666666667,8,24,0.34,0
0.17601136326953437,0.17595635822555547,-0.27,0.33,0.15,4.1,0.1708333333333333,10,24,0.33,0
0.2745614685275412,0.2744448942866309,-0.53,0.59,0.22479999999999997,6.290000000000001,0.2620833333333334,10,24,0.25,0
0.28395774333516594,0.28350661367946955,-0.5,0.5,0.24,5.5600000000000005,0.2316666666666667,8,24,0.5,0
0.23046040874735949,0.23029233595584547,-0.35,0.39,0.2008,5.16,0.215,9,23,0.35,0
0.1277654100294755,0.1277497553813705,-0.26,0.22,0.11000000000000001,2.48,0.10333333333333333,8,23,0.22,0
0.18440173534975207,0.18432840258625366,-0.4,0.29,0.15639999999999998,3.99,0.16625,7,24,0.24,0
0.243006172761105,0.24239669964749933,-0.44,0.46,0.198,4.9,0.2041666666666667,8,23,0.46,0
0.15722595205626838,0.15648948846488062,-0.33,0.24,0.13440000000000002,3.1500000000000004,0.13125,8,24,0.26,0
0.19222903006570052,0.19212246094613716,-0.36,0.36,0.1696,4.039999999999999,0.1683333333333333,7,24,0.25,0
0.24862019226120796,0.2486172962607389,-0.44,0.44,0.218,5.8,0.24166666666666667,9,24,0.39,0
0.20302709178826356,0.20199960396000782,-0.38,0.37,0.17719999999999994,4.6,0.19166666666666665,9,23,0.28,0
0.16561400906928134,0.16403706898137385,-0.32,0.33,0.13480000000000003,2.8800000000000003,0.12000000000000001,6,23,0.24,0
0.23474241201793938,0.23473014293013159,-0.43,0.45,0.20720000000000002,5.34,0.2225,10,24,0.45,0
0.2907025971676208,0.2906560854343153,-0.55,0.57,0.2212,5.69,0.23708333333333334,7,24,0.57,0
0.13997142565538154,0.13996913945581005,-0.29,0.22,0.12,2.84,0.11833333333333333,8,22,0.15,0
0.21005713508471927,0.20999276178001944,-0.37,0.37,0.1884,5.290000000000001,0.2204166666666667,10,23,0.37,0
0.24052442703392932,0.2384395940275021,-0.5,0.4,0.18840000000000004,4.75,0.19791666666666666,10,24,0.3,0
0.45042646458661817,0.44901741614329393,-0.94,0.81,0.38280000000000003,10.32,0.43,10,24,0.94,0
0.20272148381461694,0.20256357026869368,-0.36,0.31,0.1728,4.75,0.19791666666666666,10,24,0.36,0
0.23834428879249447,0.23811728202715568,-0.55,0.47,0.18799999999999997,4.34,0.18083333333333332,8,23,0.39,0
0.2862795836241208,0.2850964748992874,-0.42,0.57,0.2396,6.42,0.2675,11,24,0.52,0
0.24617879681239813,0.2448019607764611,-0.55,0.4,0.214,5.07,0.21125000000000002,8,23,0.55,0
0.225290923030645,0.22475017241372697,-0.4,0.44,0.1924,4.33,0.18041666666666667,7,24,0.27,0
0.1873392644375439,0.18716837339678946,-0.45,0.34,0.1536,3.98,0.16583333333333333,11,22,0.45,0
0.2906269085958834,0.2900935021678355,-0.59,0.5,0.25360000000000005,6.47,0.26958333333333334,9,24,0.41,0
0.25369272752682526,0.25368137495685406,-0.48,0.45,0.21600000000000003,5.62,0.23416666666666666,7,23,0.32,0
0.24372935810033225,0.24293999259076304,-0.43,0.44,0.20120000000000002,5.18,0.21583333333333332,9,23,0.35,0
0.25111750237687536,0.2510789517263445,-0.45,0.46,0.20840000000000003,5.9399999999999995,0.24749999999999997,11,24,0.31,0
0.3049065430586887,0.3048215215499063,-0.6,0.56,0.2512,6.970000000000001,0.2904166666666667,10,24,0.6,0
0.17557904202950875,0.1755749412644071,-0.28,0.37,0.1524,3.64,0.15166666666666667,8,22,0.31,0
0.22018174311236613,0.2200058181048856,-0.43,0.37,0.19039999999999999,4.74,0.1975,9,23,0.43,0
0.2602383522849774,0.25966932818490523,-0.48,0.54,0.21240000000000003,4.99,0.20791666666666667,8,23,0.54,0
0.2868239878392322,0.28682370892239717,-0.56,0.55,0.22440000000000002,5.640000000000001,0.23500000000000001,8,24,0.56,0
0.2101903898849802,0.21017173929907892,-0.43,0.43,0.17240000000000003,4.43,0.18458333333333332,10,23,0.43,0
0.2301303978182804,0.2299620838312264,-0.39,0.37,0.196,5.36,0.22333333333333336,9,24,0.37,0
0.17244129435839897,0.17225562400107577,-0.3,0.29,0.1408,3.9299999999999997,0.16374999999999998,11,24,0.3,0
0.1936388390793541,0.19353304627375656,-0.38,0.38,0.168,3.7600000000000002,0.15666666666666668,8,23,0.38,0
0.24321184181696417,0.24295382277297056,-0.41,0.44,0.204,5.8,0.24166666666666667,10,24,0.39,0
0.27912721114216005,0.2790125445208512,-0.58,0.56,0.22959999999999997,5.93,0.24708333333333332,9,24,0.58,0
0.15213152204589292,0.15187679217049588,-0.35,0.25,0.1192,2.94,0.1225,10,24,0.35,0
0.2181375712709757,0.21811409858145345,-0.41,0.41,0.168,4.16,0.17333333333333334,7,21,0.09,0
0.1710321607183865,0.17058206236295773,-0.27,0.41,0.1412,3.9699999999999998,0.16541666666666666,10,24,0.27,0
0.2922875296689888,0.29212983414913307,-0.52,0.53,0.2504,6.57,0.27375,9,24,0.53,0
0.1773471172587815,0.17718419794101278,-0.29,0.31,0.1508,3.87,0.16125,10,23,0.23,0
0.24297324955640695,0.24293340651297837,-0.43,0.44,0.2132,5.67,0.23625,9,23,0.44,0
0.2167487024182613,0.21658587211542676,-0.37,0.4,0.1844,5.18,0.21583333333333332,10,23,0.4,0
0.19224983745116664,0.1922082204277434,-0.31,0.29,0.172,4.96,0.20666666666666667,11,23,0.24,0
0.30767515336796375,0.307674113308221,-0.55,0.53,0.26,7.290000000000001,0.30375,10,24,0.5,0
0.2628687885618983,0.26284413632417214,-0.46,0.55,0.21160000000000004,5.62,0.23416666666666666,10,24,0.55,0
0.2558124312851117,0.255530820058951,-0.51,0.59,0.2048,4.99,0.20791666666666667,8,23,0.47,0
0.2187509999977143,0.21824976517742234,-0.42,0.47,0.1844,4.859999999999999,0.20249999999999999,8,24,0.23,0
0.25007998720409436,0.2500412765924858,-0.43,0.45,0.21640000000000004,5.65,0.2354166666666667,10,23,0.43,0
0.21617585434085834,0.21614587666666232,-0.4,0.43,0.17959999999999998,4.82,0.20083333333333334,9,24,0.3,0
0.2043722094610713,0.20434715559556976,-0.39,0.38,0.17200000000000004,4.800000000000001,0.20000000000000004,10,23,0.26,0
0.35254503258449127,0.3525005531910553,-0.63,0.62,0.2888,8.16,0.34,11,24,0.52,0
0.20746083967823903,0.2074361588537543,-0.4,0.33,0.17920000000000003,4.7,0.19583333333333333,10,24,0.4,0
0.19824227601599012,0.19734882822048883,-0.4,0.37,0.158,3.37,0.14041666666666666,7,23,0.4,0
0.2416195356340211,0.24161125801584662,-0.49,0.41,0.2108,5.300000000000001,0.22083333333333335,8,24,0.49,0
0.21810089408344938,0.2180950251610522,-0.41,0.43,0.16879999999999998,4.34,0.18083333333333332,10,24,0.41,0
0.23345235059857505,0.23312280025771825,-0.47,0.43,0.18359999999999999,4.890000000000001,0.20375000000000001,10,24,0.47,0
0.15504837954651446,0.1550463156608373,-0.28,0.24,0.1368,3.8200000000000003,0.15916666666666668,9,24,0.24,0
0.13786950351691268,0.13719708451712814,-0.21,0.26,0.12,2.87,0.11958333333333333,8,23,0.21,0
0.31232675197619564,0.3122957572558423,-0.6,0.59,0.2396,6.6,0.27499999999999997,10,24,0.51,0
0.302734206854792,0.3026961512804548,-0.57,0.5,0.24959999999999996,6.21,0.25875,7,23,0.57,0
0.21496046148071044,0.21490686354791,-0.32,0.37,0.19360000000000002,5.0600000000000005,0.21083333333333334,9,23,0.32,0
0.20664946164943182,0.20642635490653805,-0.45,0.38,0.1664,4.43,0.18458333333333332,10,24,0.45,0
0.32814630883189894,0.32814630883189894,-0.65,0.65,0.2648,7.14,0.2975,9,22,0.43,0
0.21633307652783937,0.2159540691906499,-0.34,0.39,0.1864,4.9,0.2041666666666667,10,22,0.39,0
0.21550870052041982,0.21461556327535986,-0.48,0.45,0.1772,4.6,0.19166666666666665,9,23,0.48,0
0.24886140721293046,0.2488585140195127,-0.48,0.48,0.1876,4.64,0.19333333333333333,9,23,0.18,0
0.19968975937688943,0.19962204287102164,-0.37,0.37,0.17,4.48,0.18666666666666668,10,24,0.33,0
0.2043624231604235,0.2041176131547692,-0.39,0.37,0.16440000000000002,4.08,0.17,9,23,0.24,0
0.21016184239771027,0.21012377304817273,-0.39,0.39,0.1848,4.3,0.17916666666666667,8,23,0.39,0
0.3796998814853647,0.37941133351548684,-0.6,0.58,0.33160000000000006,9.12,0.37999999999999995,9,24,0.6,0
0.20628136125205299,0.20530952242894143,-0.33,0.42,0.17680000000000004,4.890000000000001,0.20375000000000001,11,24,0.35,0
0.3528625794838552,0.35278911547835484,-0.62,0.57,0.304,7.470000000000001,0.31125,8,23,0.62,0
0.326992354650686,0.3262514367784454,-0.76,0.77,0.2596,6.0,0.25,9,23,0.77,0
0.12304470732217618,0.12301284485776272,-0.21,0.24,0.09480000000000001,2.54,0.10583333333333333,11,23,0.2,0
0.14593149077563758,0.14589640160058778,-0.24,0.24,0.13040000000000002,3.47,0.14458333333333334,9,24,0.24,0
0.13750636348911274,0.1375057816966254,-0.26,0.25,0.114,2.83,0.11791666666666667,8,24,0.26,0
0.15988746042138513,0.15988696006866854,-0.34,0.33,0.1252,3.3300000000000005,0.13875,10,24,0.34,0
0.20663010429267079,0.20640697662627588,-0.36,0.42,0.1704,4.950000000000001,0.20625000000000004,11,24,0.27,0
0.2924038303442689,0.2916342915365064,-0.53,0.53,0.2532,6.86,0.28583333333333333,10,24,0.53,0
0.22858696375777862,0.22639222601494072,-0.46,0.43,0.19080000000000003,3.91,0.16291666666666668,7,24,0.29,0
0.22606193841511665,0.2258225852300872,-0.51,0.52,0.1672,3.74,0.15583333333333335,6,23,0.52,0
0.20556264252047354,0.2051122619445264,-0.36,0.4,0.17840000000000003,4.720000000000001,0.19666666666666668,9,24,0.36,0
0.21324164696418943,0.21324164696418943,-0.42,0.37,0.18160000000000004,4.76,0.19833333333333333,10,23,0.42,0
0.21574985515638243,0.21524163166079185,-0.38,0.37,0.1884,4.71,0.19625,9,24,0.36,0
0.24463033336035822,0.24390686747199225,-0.43,0.4,0.2132,4.9399999999999995,0.2058333333333333,7,24,0.41,0
0.2518968042671443,0.25180500392168537,-0.4,0.47,0.20919999999999997,5.37,0.22375,9,24,0.41,0
0.25436980952935434,0.25436980952935434,-0.46,0.51,0.21280000000000002,5.51,0.22958333333333333,10,24,0.38,0
0.21555509736491968,0.21534121760591957,-0.43,0.35,0.18160000000000004,4.4799999999999995,0.18666666666666665,10,24,0.43,0
0.19080880482828877,0.19074842070119477,-0.43,0.37,0.15439999999999998,4.17,0.17375,10,23,0.19,0
0.17698587514262262,0.17690946837295057,-0.34,0.34,0.1436,3.9400000000000004,0.16416666666666668,10,23,0.34,0
0.10958102025442179,0.10957810000177955,-0.24,0.21,0.09200000000000001,2.32,0.09666666666666666,10,21,0.24,0
0.2081057423522955,0.20778219365479805,-0.38,0.36,0.17800000000000002,4.52,0.18833333333333332,9,24,0.29,0
0.18580635080642427,0.18557844702443224,-0.3,0.34,0.1636,4.13,0.17208333333333334,9,24,0.3,0
0.16803571049035976,0.16803142563223109,-0.34,0.39,0.134,3.62,0.15083333333333335,10,23,0.16,0
0.2290676755895515,0.22892793625942642,-0.41,0.37,0.1944,5.42,0.22583333333333333,9,23,0.36,0
0.22822795621921516,0.22813820372747745,-0.39,0.41,0.2,5.15,0.21458333333333335,9,24,0.41,0
0.35207385588822127,0.3514350011026221,-0.71,0.72,0.2948,7.7,0.32083333333333336,9,24,0.72,0
0.1776400855662933,0.17760360356704477,-0.37,0.39,0.1436,3.29,0.13708333333333333,9,24,0.39,0
0.14108153670838716,0.14085453489327207,-0.27,0.25,0.1128,2.5100000000000002,0.10458333333333335,6,22,0.27,0
0.19076687343456672,0.1903890753168364,-0.39,0.39,0.144,3.6500000000000004,0.15208333333333335,11,23,0.39,0
0.16991762710207556,0.16991574382616814,-0.32,0.29,0.14400000000000002,3.3800000000000003,0.14083333333333334,9,22,0.29,0
0.19371112513224428,0.19370740822178173,-0.43,0.4,0.1636,4.42,0.18416666666666667,10,24,0.18,0
0.1629969324864735,0.16296551782509083,-0.26,0.28,0.1416,3.93,0.16375,10,24,0.28,0
0.16248076809271922,0.16247879861692727,-0.28,0.25,0.1448,4.02,0.16749999999999998,10,23,0.23,0
0.25681121470839235,0.25681121470839235,-0.42,0.5,0.2216,6.140000000000001,0.25583333333333336,9,24,0.32,0
0.24838679514016038,0.2483236597668454,-0.47,0.5,0.20879999999999999,5.27,0.21958333333333332,8,24,0.43,0
0.287130632291297,0.2870679362102288,-0.5,0.47,0.25720000000000004,6.16,0.25666666666666665,8,24,0.5,0
0.2080288441538817,0.20788997089806907,-0.4,0.47,0.16759999999999997,4.5600000000000005,0.19000000000000003,10,23,0.47,0
0.15502257900060884,0.15449323609789525,-0.36,0.33,0.12240000000000001,3.2600000000000002,0.13583333333333333,10,22,0.16,0
0.21378493866500511,0.21374751460543345,-0.46,0.38,0.1824,4.24,0.17666666666666667,8,21,0.33,0
0.17229045243425417,0.17204464536857866,-0.29,0.31,0.1436,3.3699999999999997,0.14041666666666666,7,22,0.29,0
0.1968349562450735,0.19667231630303234,-0.44,0.43,0.15600000000000003,3.7899999999999996,0.15791666666666665,8,24,0.13,0
0.18018878988438763,0.17991108915239215,-0.36,0.42,0.1444,3.9699999999999998,0.16541666666666666,11,23,0.35,0
0.23471685069461887,0.23459377655854385,-0.48,0.45,0.19640000000000002,5.55,0.23124999999999998,10,24,0.48,0
0.32394443968063413,0.3238730615534426,-0.65,0.47,0.29,6.970000000000001,0.2904166666666667,8,24,0.51,0
0.3308413517080354,0.33067784927327687,-0.58,0.67,0.2728,7.23,0.30125,10,24,0.67,0
0.13307140940111817,0.13299864660965538,-0.26,0.2,0.11639999999999999,2.9699999999999998,0.12374999999999999,9,24,0.26,0
0.10254754994635416,0.10122766420302308,-0.17,0.2,0.0868,2.0300000000000002,0.08458333333333334,9,24,0.2,0
0.1505722417977497,0.15002719753431376,-0.25,0.3,0.1256,3.1500000000000004,0.13125,8,22,0.3,0
0.30011331193400936,0.2999957333029922,-0.5,0.52,0.2596,6.9399999999999995,0.2891666666666666,9,24,0.5,0
0.2000099997500125,0.1996252489040402,-0.29,0.29,0.18040000000000003,5.03,0.20958333333333334,11,24,0.29,0
0.24273442277518037,0.24272255766615514,-0.4,0.47,0.20800000000000002,5.99,0.24958333333333335,10,24,0.4,0
0.2636133532277908,0.26352563442670995,-0.45,0.4,0.23399999999999999,6.69,0.27875,10,24,0.42,0
0.30858386218336176,0.3081262079083829,-0.61,0.52,0.26,6.609999999999999,0.27541666666666664,9,24,0.49,0
0.2120282999979012,0.21079886147700136,-0.36,0.52,0.16680000000000003,4.16,0.17333333333333334,10,23,0.52,0
0.22494443758403984,0.22487472067798106,-0.46,0.43,0.19520000000000004,5.08,0.21166666666666667,9,24,0.27,0
0.2528082277142103,0.25276265546951354,-0.47,0.51,0.19760000000000003,4.970000000000001,0.20708333333333337,8,24,0.43,0
0.19925862591115096,0.1991799186665162,-0.36,0.39,0.16,3.9400000000000004,0.16416666666666668,8,23,0.16,0
0.22477544349861708,0.22455288909297072,-0.43,0.46,0.18919999999999998,5.04,0.21,10,23,0.46,0
0.16438978070427615,0.16438199414777763,-0.29,0.35,0.1448,3.84,0.16,9,24,0.19,0
0.24543023448629958,0.24525774197769984,-0.47,0.41,0.20679999999999998,4.9,0.2041666666666667,8,22,0.47,0
0.20684293558156633,0.20658131570885105,-0.37,0.46,0.1736,4.130000000000001,0.17208333333333337,8,23,0.46,0
0.16580711685570074,0.16545500899035964,-0.4,0.26,0.1348,2.88,0.12,7,23,0.2,0
0.2309805186590419,0.23053121263724788,-0.39,0.41,0.19519999999999998,5.390000000000001,0.22458333333333336,9,24,0.39,0
0.14291256067959876,0.14280280109297575,-0.31,0.3,0.11599999999999999,2.8,0.11666666666666665,10,23,0.24,0
0.1788966181905069,0.17889259347440856,-0.32,0.37,0.154,3.8499999999999996,0.16041666666666665,9,23,0.37,0
0.17797752667120642,0.17781518495336668,-0.31,0.32,0.15560000000000002,3.8600000000000003,0.16083333333333336,9,24,0.32,0
0.1726499348392579,0.17260359208313134,-0.3,0.28,0.1424,3.88,0.16166666666666665,11,23,0.2,0
0.14434680460612906,0.14434625038427565,-0.26,0.21,0.1284,3.55,0.14791666666666667,9,24,0.26,0
0.3142164858819473,0.31378820882882136,-0.5,0.51,0.26839999999999997,7.25,0.3020833333333333,10,24,0.48,0
0.2514756449439985,0.2494313532818198,-0.48,0.57,0.2096,5.51,0.22958333333333333,9,24,0.57,0
0.15835403373454054,0.1578029150554577,-0.27,0.23,0.1388,2.56,0.10666666666666667,6,22,0.27,0
0.23344378338263796,0.23343144603930294,-0.47,0.54,0.18080000000000002,4.300000000000001,0.1791666666666667,9,23,0.47,0
0.13380582946942185,0.13380343792294724,-0.31,0.27,0.10959999999999999,2.63,0.10958333333333332,9,22,0.18,0
0.24762067765031254,0.24761260064867457,-0.47,0.45,0.2148,5.35,0.22291666666666665,8,24,0.29,0
0.2871863506505837,0.28691852502060583,-0.58,0.54,0.2284,5.720000000000001,0.23833333333333337,9,22,0.39,0
0.2137475146054335,0.21373404033985788,-0.39,0.56,0.1616,3.92,0.16333333333333333,8,23,0.56,0
0.2922943721661435,0.2915245444212202,-0.46,0.5,0.25560000000000005,6.59,0.27458333333333335,9,24,0.5,0
0.19119623427254,0.19117573067730118,-0.29,0.34,0.16760000000000005,4.859999999999999,0.20249999999999999,10,24,0.3,0
0.20932271735289507,0.20931660230378285,-0.43,0.37,0.1736,4.800000000000001,0.20000000000000004,10,24,0.31,0
0.16845177351396454,0.1681780009394808,-0.33,0.39,0.13040000000000002,3.41,0.14208333333333334,11,22,0.39,0
0.2841900772370492,0.2836194633659686,-0.71,0.62,0.22360000000000002,5.4,0.225,8,23,0.42,0
0.27376632371422166,0.273408119850161,-0.4,0.59,0.23800000000000002,6.279999999999999,0.26166666666666666,10,24,0.59,0
0.1633033986174201,0.1628319378991726,-0.4,0.33,0.1284,3.08,0.12833333333333333,7,21,0.16,0
0.213607115986336,0.21291350356424085,-0.39,0.36,0.18359999999999999,4.59,0.19125,10,23,0.39,0
0.21707141681944217,0.2170183402387918,-0.38,0.39,0.1744,4.74,0.1975,10,23,0.31,0
0.36058840802222136,0.36058840802222136,-0.62,0.62,0.30400000000000005,6.86,0.28583333333333333,7,23,0.62,0
0.3151571036800535,0.31511420152065506,-0.57,0.59,0.25799999999999995,7.37,0.3070833333333333,10,24,0.57,0
0.3430451865279558,0.34270827244173724,-0.57,0.59,0.3016,8.33,0.34708333333333335,9,24,0.41,0
0.21997272558205938,0.2199549044690752,-0.41,0.39,0.19079999999999997,5.1899999999999995,0.21624999999999997,9,23,0.31,0
0.23028677773593514,0.23028677773593514,-0.42,0.46,0.1984,5.42,0.22583333333333333,10,24,0.46,0
0.25183327818221324,0.25176179217665257,-0.45,0.42,0.2148,5.58,0.2325,9,24,0.42,0
0.1648878406675277,0.1648291236402111,-0.33,0.3,0.134,3.46,0.14416666666666667,10,23,0.33,0
0.25022389973781484,0.2499907198277568,-0.43,0.52,0.222,5.67,0.23625,9,24,0.33,0
0.1253953747153379,0.12521086214861712,-0.27,0.27,0.0908,2.3200000000000003,0.09666666666666668,11,23,0.08,0
0.20684293558156638,0.20622318007440385,-0.36,0.34,0.18239999999999998,4.5,0.1875,8,23,0.34,0
0.34620802994731364,0.34618931237113604,-0.72,0.63,0.2772,7.620000000000001,0.31750000000000006,9,23,0.63,0
0.20900717691026785,0.20900679414794152,-0.33,0.32,0.1812,4.98,0.20750000000000002,10,24,0.32,0
0.23203448019637082,0.23202206791596355,-0.54,0.47,0.1888,5.11,0.21291666666666667,10,24,0.54,0
0.2561562023453658,0.25603124809288413,-0.42,0.44,0.2248,5.86,0.24416666666666667,9,23,0.42,0
0.250543409412421,0.2503744395899869,-0.48,0.47,0.20679999999999998,5.549999999999999,0.23124999999999996,9,24,0.48,0
0.11210709165793215,0.11192426010476905,-0.21,0.22,0.09760000000000002,2.7,0.1125,10,22,0.19,0
0.15013327412669053,0.14997919855766667,-0.31,0.37,0.1204,2.71,0.11291666666666667,7,22,0.19,0
0.19925862591115096,0.19902723431731648,-0.35,0.31,0.17919999999999997,4.6,0.19166666666666665,9,22,0.35,0
0.30184764368800365,0.30171933978450904,-0.46,0.43,0.2624,6.279999999999999,0.26166666666666666,8,24,0.46,0
0.28316779477899673,0.2828783484114682,-0.61,0.56,0.2336,6.140000000000001,0.25583333333333336,9,23,0.37,0
0.3282620904094775,0.3282618467016842,-0.6,0.59,0.27799999999999997,7.17,0.29875,9,24,0.5,0
0.16302147097851866,0.1630195080350815,-0.31,0.29,0.14,3.93,0.16375,10,23,0.31,0
0.27686097594280057,0.2764211279913314,-0.58,0.56,0.22440000000000002,5.96,0.24833333333333332,12,24,0.46,0
0.3945377041551289,0.39292828862274604,-0.74,0.83,0.33240000000000003,8.21,0.34208333333333335,9,24,0.83,0
0.1245792920191795,0.1224,-0.16,0.34,0.0944,2.21,0.09208333333333334,10,21,0.34,0
0.1621234097840284,0.16186216358371094,-0.34,0.36,0.12999999999999998,3.3600000000000003,0.14,9,22,0.36,0
0.11685888926393234,0.11684793536900856,-0.18,0.19,0.1032,2.25,0.09375,8,24,0.18,0
0.24317072192186295,0.24296501805815585,-0.54,0.5,0.1996,4.8,0.19999999999999998,8,23,0.43,0
0.2654656286602844,0.26546080690000173,-0.49,0.58,0.2008,5.34,0.2225,9,24,0.3,0
0.2208800579500105,0.22065357463680482,-0.48,0.43,0.18919999999999998,5.08,0.21166666666666667,10,23,0.25,0
0.26258712839741405,0.26255666055158455,-0.56,0.55,0.21840000000000004,6.07,0.2529166666666667,10,24,0.38,0
0.2840492914970921,0.2837040711727627,-0.41,0.4,0.25560000000000005,6.699999999999999,0.2791666666666666,9,24,0.41,0
0.23016515809305282,0.22960836221705866,-0.39,0.44,0.188,4.15,0.1729166666666667,7,22,0.44,0
0.18649396773086255,0.18649010697621468,-0.34,0.32,0.1628,4.55,0.18958333333333333,10,24,0.29,0
0.22306052990163902,0.22197297132759206,-0.45,0.33,0.1812,4.94,0.20583333333333334,10,24,0.32,0
0.2156849554326866,0.214254428192278,-0.36,0.48,0.1752,3.1900000000000004,0.13291666666666668,6,23,0.48,0
0.19936900461205095,0.19932044551425226,-0.38,0.33,0.1668,4.67,0.19458333333333333,10,24,0.38,0
0.18226354544998843,0.18226310652460634,-0.35,0.34,0.158,4.49,0.18708333333333335,10,24,0.29,0
0.2585575371169829,0.25844581637163333,-0.44,0.43,0.22039999999999998,5.4399999999999995,0.22666666666666666,9,22,0.44,0
0.23181889482956303,0.23179094028887326,-0.45,0.45,0.198,5.07,0.21125000000000002,9,23,0.45,0
0.20544585661434012,0.20538977579227258,-0.4,0.39,0.15839999999999999,4.36,0.18166666666666667,9,24,0.21,0
0.1968654362756449,0.1967479605993414,-0.37,0.32,0.1668,4.3500000000000005,0.18125000000000002,9,24,0.37,0
0.30937356060271215,0.30779629627401306,-0.65,0.65,0.2664,6.61,0.2754166666666667,8,24,0.33,0
0.2675369133409444,0.26751777511036534,-0.5,0.53,0.22639999999999996,5.54,0.23083333333333333,9,24,0.53,0
0.2750999818247904,0.2750953289316269,-0.65,0.57,0.2232,5.32,0.22166666666666668,8,24,0.4,0
0.2028299780604435,0.2024505865637341,-0.42,0.59,0.14520000000000002,3.4299999999999997,0.14291666666666666,10,20,0.59,0
0.27094648918190467,0.27092257196475894,-0.46,0.48,0.2316,6.24,0.26,9,24,0.41,0
0.18962067397834026,0.1896,-0.32,0.31,0.1636,4.3100000000000005,0.17958333333333334,9,24,0.22,0
0.10633908030446756,0.10612143986961355,-0.21,0.19,0.0892,2.3100000000000005,0.09625000000000002,9,22,0.17,0
0.2991922458888264,0.29893517691967936,-0.56,0.57,0.23,6.300000000000001,0.2625,10,24,0.56,0
0.1706106678962368,0.17003529045465826,-0.26,0.31,0.142,2.75,0.11458333333333333,6,23,0.31,0
0.18479177470872452,0.18452100151473272,-0.35,0.35,0.1516,4.09,0.17041666666666666,11,23,0.35,0
0.2501279672487665,0.2500559937294045,-0.49,0.49,0.214,4.9399999999999995,0.2058333333333333,8,23,0.49,0
0.24928698321412612,0.249158584038359,-0.55,0.42,0.21119999999999997,5.21,0.21708333333333332,9,24,0.4,0
0.26709548854295534,0.2658270114190806,-0.41,0.55,0.22599999999999998,5.870000000000001,0.24458333333333337,9,23,0.55,0
0.22103393404633595,0.2207891301672254,-0.41,0.38,0.18960000000000002,5.4,0.225,9,24,0.41,0
0.36013886210738216,0.36000000000000004,-0.72,0.7,0.314,7.709999999999999,0.32125,9,24,0.43,0
0.2957431317883815,0.29373566347993907,-0.58,0.55,0.2528,6.460000000000001,0.2691666666666667,8,23,0.58,0
0.1661324772583615,0.16569852141766384,-0.26,0.38,0.14079999999999998,3.8000000000000003,0.15833333333333335,10,24,0.26,0
0.24534873140083688,0.2449489742783178,-0.41,0.42,0.20759999999999998,5.71,0.23791666666666667,10,24,0.38,0
0.32237245539903064,0.32236625133534064,-0.55,0.55,0.27,7.6,0.31666666666666665,10,24,0.37,0
0.2936800980659057,0.29367029131323447,-0.53,0.45,0.26480000000000004,7.57,0.3154166666666667,10,24,0.53,0
0.27126370933097554,0.27122123810645804,-0.49,0.49,0.23119999999999996,6.279999999999999,0.26166666666666666,11,23,0.45,0
0.31844622779992227,0.31842110482818187,-0.65,0.57,0.2568,7.25,0.3020833333333333,10,24,0.51,0
0.20277080657727828,0.2027672557391849,-0.34,0.32,0.1764,5.029999999999999,0.20958333333333332,10,22,0.34,0
0.20706520712084878,0.20703391026592718,-0.36,0.36,0.1772,5.0,0.20833333333333334,11,24,0.36,0
0.2159814806875812,0.2159814806875812,-0.48,0.44,0.17679999999999998,4.71,0.19625,10,24,0.48,0
0.17652195330892984,0.1761662850831566,-0.34,0.36,0.1432,3.1500000000000004,0.13125,6,23,0.34,0
0.15013327412669053,0.14955186391349323,-0.34,0.33,0.122,3.0700000000000003,0.12791666666666668,7,24,0.23,0
0.198997487421324,0.19899105507534756,-0.44,0.4,0.144,3.4400000000000004,0.14333333333333334,10,24,0.44,0
0.2752017441805193,0.2741532418192424,-0.56,0.54,0.22960000000000005,5.9,0.24583333333333335,10,24,0.43,0
0.22993042425916585,0.22854531279376525,-0.39,0.46,0.19399999999999998,4.71,0.19625,8,23,0.39,0
0.2490301186603741,0.24887458689066672,-0.51,0.56,0.2048,5.23,0.21791666666666668,9,23,0.45,0
0.144083309234623,0.14408108828017646,-0.32,0.3,0.1192,2.6799999999999997,0.11166666666666665,7,22,0.32,0
0.20813457185196313,0.20794845515175148,-0.41,0.39,0.17120000000000002,4.609999999999999,0.1920833333333333,9,23,0.25,0
0.1961428051191274,0.19610201426808446,-0.42,0.43,0.1576,4.359999999999999,0.18166666666666664,10,24,0.43,0
0.1797108789138821,0.17966635745180565,-0.34,0.35,0.14719999999999997,4.07,0.16958333333333334,10,24,0.34,0
0.30703094306600437,0.3069160145707617,-0.56,0.48,0.2724,7.190000000000001,0.29958333333333337,9,23,0.56,0
0.18380424369420856,0.18303486006769312,-0.36,0.33,0.15760000000000002,4.08,0.17,8,23,0.3,0
0.1455884610812272,0.14552195710613572,-0.25,0.31,0.11959999999999998,2.99,0.12458333333333334,10,24,0.31,0
0.20276094298458963,0.20260306019406518,-0.37,0.37,0.16,3.9499999999999997,0.16458333333333333,10,24,0.29,0
0.1965604232799675,0.19644276520147033,-0.47,0.45,0.1524,4.0600000000000005,0.1691666666666667,10,23,0.26,0
0.23352944139872386,0.23326071250855768,-0.47,0.49,0.1832,4.2700000000000005,0.1779166666666667,10,24,0.22,0
0.18439088914585774,0.1843752694913285,-0.34,0.34,0.1528,3.47,0.14458333333333334,8,23,0.2,0
0.1888385553852814,0.18881779577147914,-0.4,0.4,0.16200000000000003,4.13,0.17208333333333334,9,24,0.4,0
0.14252017401055894,0.14207941441320765,-0.27,0.28,0.11840000000000002,2.7300000000000004,0.11375000000000002,7,22,0.21,0
0.2222071105972984,0.2221840678356574,-0.39,0.34,0.18480000000000005,4.87,0.20291666666666666,10,24,0.39,0
0.345705076618785,0.3455717581053174,-0.61,0.62,0.2808,6.25,0.2604166666666667,7,24,0.62,0
0.12132600710482482,0.12037009595410315,-0.38,0.24,0.0872,1.96,0.08166666666666667,8,21,0.09,0
0.1777638883463118,0.17769907146634167,-0.28,0.39,0.14639999999999997,3.38,0.14083333333333334,7,23,0.39,0
0.24297324955640695,0.24279901153011313,-0.5,0.52,0.20680000000000004,5.62,0.23416666666666666,9,22,0.32,0
0.11685888926393234,0.11663687238605122,-0.29,0.17,0.09519999999999999,2.2800000000000002,0.09500000000000001,9,23,0.14,0
0.22849070002956356,0.2284850979823411,-0.41,0.38,0.1912,5.199999999999999,0.21666666666666665,10,23,0.26,0
0.2671104640406287,0.2669519807006496,-0.47,0.47,0.23079999999999998,6.33,0.26375,10,24,0.45,0
0.2219369279772972,0.22179269600237064,-0.37,0.37,0.18719999999999995,5.210000000000001,0.21708333333333338,9,24,0.36,0
0.08885943956609224,0.08872970190415384,-0.19,0.17,0.0712,1.7600000000000002,0.07333333333333335,10,20,0.16,0
0.26064535292231855,0.2606011511870199,-0.56,0.53,0.2,5.180000000000001,0.21583333333333335,8,21,0.2,0
0.20726794252850586,0.20696511783389973,-0.41,0.35,0.1728,4.01,0.16708333333333333,6,23,0.41,0
0.18633303518163385,0.18612511920748365,-0.35,0.33,0.15680000000000002,3.92,0.16333333333333333,8,24,0.28,0
0.2913279938488576,0.29108074481146984,-0.5,0.53,0.24239999999999998,6.15,0.25625000000000003,8,23,0.41,0
