rms,std,min,max,mav,wfl,aac,zc,wamp,afb,raw_0,raw_1,raw_2,raw_3,raw_4,raw_5,raw_6,raw_7,raw_8,raw_9,raw_10,raw_11,raw_12,raw_13,raw_14,raw_15,raw_16,raw_17,raw_18,raw_19,raw_20,raw_21,raw_22,raw_23,raw_24,raw_25,raw_26,raw_27,raw_28,raw_29,raw_30,raw_31,raw_32,raw_33,raw_34,raw_35,raw_36,raw_37,raw_38,raw_39,raw_40,raw_41,raw_42,raw_43,raw_44,raw_45,raw_46,raw_47,raw_48,raw_49,raw_50,raw_51,raw_52,raw_53,raw_54,raw_55,raw_56,raw_57,raw_58,raw_59,raw_60,raw_61,raw_62,raw_63,raw_64,raw_65,raw_66,raw_67,raw_68,raw_69,raw_70,raw_71,raw_72,raw_73,raw_74,raw_75,raw_76,raw_77,raw_78,raw_79,raw_80,raw_81,raw_82,raw_83,raw_84,raw_85,raw_86,raw_87,raw_88,raw_89,raw_90,raw_91,raw_92,raw_93,raw_94,raw_95,raw_96,raw_97,raw_98,raw_99,label
0.14800337833982033,0.14795712216720086,-0.45,0.41,0.11130000000000001,10.19,0.10292929292929293,32,91,0.17,0.04,-0.17,-0.14,0.06,0.17,0.09,-0.06,-0.11,-0.05,0.02,0.02,0.01,0.04,0.08,0.03,-0.09,-0.14,-0.04,0.1,0.14,0.05,-0.07,-0.1,-0.07,-0.01,0.04,0.1,0.1,0.0,-0.14,-0.16,-0.03,0.13,0.17,0.05,-0.09,-0.13,-0.05,0.04,0.06,0.04,0.01,-0.02,-0.07,-0.07,0.05,0.17,0.12,-0.11,-0.26,-0.15,0.11,0.24,0.14,-0.03,-0.09,-0.06,-0.04,-0.07,-0.07,0.03,0.15,0.15,0.01,-0.12,-0.12,-0.04,0.03,0.05,0.05,0.03,-0.0,-0.04,-0.07,-0.02,0.08,0.13,0.01,-0.19,-0.23,0.01,0.32,0.36,0.02,-0.39,-0.45,-0.08,0.33,0.41,0.15,-0.15,-0.28,-0.23,-0.07,0.14,0.27,0.23,-0.0,-0.27,-0.31,0
0.21218388251702813,0.21218152605728902,-0.5,0.54,0.17360000000000003,15.820000000000004,0.15979797979797983,28,96,0.28,-0.07,0.23,0.28,0.05,-0.19,-0.18,0.03,0.18,0.11,-0.1,-0.22,-0.11,0.12,0.24,0.13,-0.08,-0.19,-0.12,-0.02,0.02,0.05,0.14,0.2,0.07,-0.19,-0.36,-0.23,0.15,0.43,0.33,-0.06,-0.37,-0.33,-0.03,0.21,0.2,0.07,-0.01,-0.01,-0.04,-0.11,-0.16,-0.08,0.1,0.23,0.2,0.01,-0.18,-0.23,-0.1,0.05,0.1,0.09,0.13,0.14,-0.01,-0.27,-0.33,-0.05,0.32,0.37,0.04,-0.28,-0.26,0.02,0.2,0.12,-0.05,-0.12,-0.1,-0.02,0.08,0.19,0.19,-0.01,-0.31,-0.4,-0.11,0.35,0.54,0.25,-0.25,-0.5,-0.35,0.01,0.32,0.39,0.22,-0.1,-0.34,-0.33,-0.08,0.19,0.3,0.22,0.02,-0.18,-0.28,-0.22,-0.01,0
0.1816562688155848,0.18162981583429522,-0.38,0.37,0.1515,13.5,0.13636363636363635,31,98,0.34,0.26,0.34,0.13,-0.19,-0.3,-0.11,0.12,0.14,-0.02,-0.11,-0.02,0.15,0.19,0.02,-0.2,-0.25,-0.07,0.14,0.18,0.09,0.03,0.03,-0.03,-0.18,-0.26,-0.08,0.23,0.37,0.16,-0.18,-0.3,-0.12,0.1,0.12,0.01,-0.04,0.02,0.07,0.05,0.0,-0.06,-0.12,-0.14,-0.04,0.16,0.29,0.18,-0.11,-0.34,-0.29,0.0,0.25,0.26,0.1,-0.07,-0.14,-0.13,-0.05,0.02,0.06,0.04,0.02,0.05,0.08,0.05,-0.08,-0.19,-0.18,-0.02,0.18,0.28,0.2,-0.04,-0.28,-0.34,-0.13,0.2,0.37,0.2,-0.13,-0.28,-0.12,0.12,0.15,-0.04,-0.19,-0.11,0.15,0.3,0.19,-0.11,-0.33,-0.3,-0.07,0.18,0.3,0.28,0.12,-0.15,-0.38,0
0.16866534913846412,0.16866487482579176,-0.51,0.51,0.1272,11.940000000000001,0.12060606060606062,35,91,0.18,-0.1,-0.01,0.07,0.11,0.09,0.01,-0.11,-0.18,-0.1,0.07,0.18,0.12,0.0,-0.06,-0.05,-0.06,-0.09,-0.07,0.05,0.17,0.16,-0.0,-0.15,-0.17,-0.04,0.08,0.08,0.0,-0.01,0.08,0.12,-0.03,-0.26,-0.27,0.02,0.35,0.35,0.03,-0.3,-0.33,-0.07,0.18,0.21,0.05,-0.09,-0.06,0.05,0.05,-0.08,-0.15,-0.05,0.11,0.15,0.08,0.0,-0.05,-0.11,-0.17,-0.14,0.06,0.32,0.36,0.05,-0.39,-0.51,-0.14,0.36,0.51,0.17,-0.26,-0.35,-0.1,0.14,0.12,-0.04,-0.09,0.05,0.19,0.12,-0.13,-0.29,-0.18,0.1,0.27,0.19,-0.03,-0.17,-0.15,-0.04,0.04,0.06,0.05,0.04,0.02,-0.02,-0.06,-0.06,-0.01,0.04,0.06,0
0.2267972662974578,0.2267967151437604,-0.52,0.53,0.1789,16.1,0.16262626262626265,31,98,0.2,0.04,-0.0,-0.05,-0.07,-0.02,0.05,0.1,0.07,-0.05,-0.2,-0.18,0.07,0.33,0.28,-0.08,-0.4,-0.32,0.04,0.3,0.23,0.03,-0.04,-0.01,-0.05,-0.2,-0.26,-0.06,0.28,0.46,0.28,-0.15,-0.49,-0.47,-0.12,0.3,0.53,0.4,-0.02,-0.43,-0.52,-0.22,0.2,0.42,0.32,0.05,-0.19,-0.26,-0.16,-0.0,0.1,0.09,0.05,0.05,0.08,0.04,-0.08,-0.19,-0.17,-0.02,0.15,0.23,0.16,0.01,-0.14,-0.22,-0.19,-0.07,0.14,0.3,0.29,0.04,-0.28,-0.4,-0.21,0.15,0.35,0.24,-0.04,-0.2,-0.12,0.03,0.04,-0.08,-0.14,0.01,0.27,0.33,0.06,-0.34,-0.46,-0.15,0.28,0.41,0.17,-0.15,-0.22,-0.08,0.04,0.03,-0.0,0
0.138452157801892,0.1384521216883295,-0.32,0.34,0.1079,10.11,0.10212121212121211,34,89,0.22,-0.01,0.0,0.03,0.07,0.08,-0.02,-0.16,-0.16,0.03,0.22,0.19,-0.05,-0.22,-0.15,0.07,0.18,0.07,-0.1,-0.11,0.05,0.15,0.04,-0.15,-0.19,-0.01,0.18,0.18,0.01,-0.14,-0.13,-0.01,0.05,0.02,-0.02,0.03,0.11,0.09,-0.06,-0.19,-0.16,0.0,0.16,0.18,0.08,-0.02,-0.08,-0.11,-0.12,-0.06,0.05,0.12,0.11,0.06,0.04,-0.0,-0.13,-0.25,-0.18,0.09,0.34,0.32,0.03,-0.27,-0.32,-0.12,0.11,0.2,0.13,0.02,-0.04,-0.07,-0.08,-0.06,-0.01,0.07,0.1,0.03,-0.07,-0.07,0.05,0.13,0.02,-0.2,-0.24,0.01,0.3,0.31,0.01,-0.29,-0.3,-0.05,0.19,0.21,0.07,-0.06,-0.08,-0.04,-0.02,-0.02,0.0,0
0.19136614120580475,0.19136611507787893,-0.46,0.5,0.15130000000000002,12.44,0.12565656565656566,27,93,0.13,0.02,0.03,0.03,0.06,0.04,-0.04,-0.13,-0.11,0.01,0.1,0.08,0.06,0.09,0.1,-0.08,-0.34,-0.34,0.03,0.46,0.5,0.08,-0.39,-0.46,-0.17,0.15,0.24,0.17,0.12,0.09,-0.03,-0.26,-0.35,-0.15,0.19,0.37,0.27,-0.01,-0.2,-0.21,-0.1,-0.02,0.01,0.06,0.14,0.19,0.11,-0.08,-0.24,-0.25,-0.1,0.11,0.25,0.24,0.11,-0.08,-0.24,-0.3,-0.17,0.12,0.37,0.36,0.04,-0.31,-0.39,-0.17,0.13,0.26,0.2,0.07,-0.04,-0.13,-0.19,-0.16,-0.02,0.15,0.25,0.19,-0.0,-0.22,-0.29,-0.15,0.1,0.26,0.22,0.03,-0.14,-0.18,-0.1,0.02,0.09,0.09,0.03,-0.03,-0.03,0.02,0.04,-0.03,-0.08,-0.05,0.02,0
0.20794470418839714,0.2079215957999553,-0.5,0.52,0.1685,15.370000000000003,0.15525252525252528,29,94,0.18,0.04,0.04,0.06,0.07,0.02,-0.1,-0.17,-0.09,0.08,0.18,0.13,0.0,-0.12,-0.16,-0.08,0.07,0.15,0.05,-0.11,-0.11,0.09,0.23,0.07,-0.24,-0.34,-0.08,0.26,0.33,0.11,-0.13,-0.18,-0.12,-0.07,-0.05,0.05,0.2,0.26,0.1,-0.19,-0.35,-0.25,0.04,0.3,0.34,0.12,-0.18,-0.3,-0.16,0.06,0.12,0.05,0.03,0.11,0.11,-0.05,-0.22,-0.22,-0.05,0.12,0.21,0.22,0.15,-0.05,-0.31,-0.42,-0.2,0.21,0.49,0.4,0.02,-0.35,-0.45,-0.22,0.14,0.35,0.25,-0.01,-0.17,-0.12,-0.02,-0.02,-0.05,0.03,0.13,0.06,-0.1,-0.12,0.09,0.24,0.08,-0.28,-0.41,-0.11,0.35,0.52,0.21,-0.28,-0.5,-0.27,0.13,0
0.27481994105231883,0.2748198682773864,-0.65,0.69,0.2214,20.93,0.21141414141414142,31,99,0.32,0.32,0.19,-0.02,-0.05,0.05,0.02,-0.17,-0.3,-0.14,0.22,0.43,0.26,-0.13,-0.36,-0.26,-0.03,0.09,0.1,0.15,0.23,0.13,-0.18,-0.43,-0.3,0.12,0.41,0.3,-0.01,-0.19,-0.14,-0.06,-0.08,-0.1,0.05,0.28,0.31,0.02,-0.34,-0.41,-0.1,0.31,0.39,0.06,-0.28,-0.23,0.11,0.27,0.02,-0.32,-0.27,0.16,0.43,0.21,-0.23,-0.36,-0.06,0.25,0.17,-0.18,-0.3,0.01,0.41,0.43,-0.02,-0.52,-0.59,-0.15,0.43,0.69,0.41,-0.2,-0.65,-0.59,-0.06,0.49,0.61,0.22,-0.28,-0.46,-0.24,0.09,0.24,0.16,0.02,-0.06,-0.08,-0.06,-0.02,0.05,0.09,0.05,-0.06,-0.15,-0.12,0.04,0.23,0.28,0.07,-0.27,-0.45,0
0.2687675575660128,0.2686711000461345,-0.78,0.67,0.21360000000000004,18.700000000000003,0.1888888888888889,31,97,0.51,-0.23,0.23,0.51,0.35,-0.1,-0.4,-0.33,-0.05,0.15,0.16,0.14,0.14,0.08,-0.11,-0.32,-0.3,-0.0,0.35,0.4,0.08,-0.27,-0.3,-0.05,0.14,0.07,-0.08,-0.03,0.18,0.24,-0.01,-0.32,-0.33,-0.03,0.26,0.31,0.13,-0.08,-0.2,-0.19,-0.09,0.04,0.12,0.15,0.13,0.05,-0.08,-0.17,-0.15,-0.04,0.03,0.05,0.11,0.22,0.22,-0.03,-0.37,-0.46,-0.17,0.3,0.54,0.36,-0.07,-0.39,-0.41,-0.19,0.1,0.32,0.35,0.17,-0.13,-0.34,-0.31,-0.07,0.17,0.25,0.19,0.07,-0.06,-0.19,-0.24,-0.13,0.1,0.25,0.17,-0.05,-0.14,0.0,0.15,0.02,-0.3,-0.4,-0.02,0.55,0.67,0.11,-0.62,-0.78,-0.19,0.51,0.65,0
0.17733865906789756,0.17724703100475336,-0.42,0.38,0.1477,13.44,0.13575757575757574,32,96,0.4,0.19,-0.32,-0.4,-0.09,0.19,0.16,-0.04,-0.14,-0.04,0.11,0.15,0.07,-0.06,-0.15,-0.17,-0.1,0.05,0.21,0.26,0.12,-0.14,-0.28,-0.18,0.02,0.1,0.08,0.1,0.15,0.12,-0.09,-0.3,-0.28,-0.02,0.24,0.29,0.14,-0.04,-0.13,-0.17,-0.16,-0.09,0.06,0.22,0.25,0.11,-0.11,-0.26,-0.25,-0.08,0.13,0.26,0.21,0.03,-0.15,-0.21,-0.12,0.02,0.09,0.08,0.07,0.08,0.04,-0.09,-0.18,-0.12,0.04,0.14,0.11,0.0,-0.05,0.0,0.07,0.0,-0.17,-0.22,-0.02,0.28,0.34,0.06,-0.29,-0.33,-0.03,0.23,0.15,-0.1,-0.14,0.11,0.29,0.09,-0.31,-0.42,-0.09,0.33,0.38,0.08,-0.17,-0.14,-0.02,-0.04,-0.17,0
0.21613421755936751,0.21606165786645254,-0.61,0.63,0.16520000000000004,14.780000000000001,0.1492929292929293,31,94,0.63,-0.16,0.1,0.41,0.41,0.02,-0.48,-0.61,-0.23,0.35,0.63,0.38,-0.13,-0.45,-0.38,-0.07,0.18,0.23,0.15,0.04,-0.04,-0.12,-0.17,-0.11,0.05,0.21,0.21,0.02,-0.19,-0.23,-0.06,0.14,0.17,0.02,-0.11,-0.06,0.08,0.11,-0.02,-0.16,-0.13,0.03,0.15,0.1,-0.02,-0.04,0.02,0.04,-0.07,-0.17,-0.09,0.11,0.21,0.1,-0.05,-0.09,-0.05,-0.05,-0.1,-0.08,0.06,0.23,0.24,0.03,-0.26,-0.37,-0.15,0.2,0.35,0.2,-0.07,-0.21,-0.17,-0.08,-0.01,0.06,0.16,0.2,0.09,-0.13,-0.3,-0.22,0.04,0.27,0.24,0.01,-0.17,-0.14,-0.0,0.06,0.05,0.04,-0.01,-0.14,-0.17,0.07,0.38,0.33,-0.15,-0.59,-0.48,0
0.21590275588792285,0.21585791623195108,-0.52,0.65,0.16620000000000001,14.46,0.14606060606060606,32,95,0.65,0.13,0.65,0.57,0.0,-0.51,-0.52,-0.14,0.24,0.32,0.16,-0.02,-0.06,-0.02,-0.04,-0.12,-0.17,-0.09,0.1,0.28,0.31,0.1,-0.25,-0.45,-0.31,0.07,0.39,0.41,0.15,-0.19,-0.34,-0.24,-0.01,0.16,0.17,0.07,-0.02,-0.02,0.02,-0.0,-0.1,-0.16,-0.07,0.12,0.23,0.14,-0.06,-0.19,-0.13,0.03,0.1,0.0,-0.09,-0.02,0.16,0.22,0.05,-0.22,-0.33,-0.18,0.14,0.35,0.31,0.05,-0.23,-0.34,-0.22,0.03,0.21,0.25,0.15,0.01,-0.12,-0.22,-0.24,-0.1,0.15,0.35,0.3,-0.01,-0.33,-0.38,-0.11,0.2,0.29,0.14,-0.05,-0.11,-0.08,-0.05,-0.04,0.01,0.06,0.05,-0.01,-0.02,0.05,0.08,-0.02,-0.17,-0.17,0
0.1364587849865299,0.1364587483454249,-0.37,0.37,0.10330000000000002,9.550000000000002,0.09646464646464649,34,90,0.21,0.01,0.21,0.21,0.02,-0.16,-0.18,-0.05,0.07,0.09,0.05,0.01,-0.01,-0.02,-0.03,-0.04,-0.02,0.0,0.01,0.03,0.08,0.08,-0.03,-0.15,-0.15,0.01,0.15,0.13,-0.0,-0.08,-0.01,0.08,0.02,-0.17,-0.24,-0.04,0.27,0.37,0.14,-0.21,-0.37,-0.25,0.03,0.23,0.26,0.13,-0.04,-0.16,-0.18,-0.1,0.03,0.1,0.1,0.07,0.06,0.02,-0.09,-0.21,-0.19,0.02,0.26,0.32,0.09,-0.23,-0.34,-0.14,0.15,0.25,0.1,-0.08,-0.11,-0.02,0.04,0.0,-0.06,-0.04,0.04,0.09,0.04,-0.04,-0.07,-0.03,0.02,0.03,-0.01,-0.05,0.0,0.09,0.1,-0.02,-0.15,-0.15,-0.01,0.13,0.17,0.1,-0.01,-0.13,-0.18,-0.11,0.06,0
0.23474454200257777,0.23472134542900014,-0.64,0.59,0.18769999999999995,15.9,0.1606060606060606,28,91,0.19,0.19,0.17,0.03,-0.12,-0.16,-0.07,0.03,0.09,0.08,0.03,-0.03,-0.08,-0.04,0.06,0.1,0.01,-0.14,-0.15,0.03,0.24,0.22,-0.02,-0.27,-0.27,-0.02,0.23,0.23,0.03,-0.13,-0.08,0.06,0.07,-0.1,-0.26,-0.15,0.22,0.5,0.34,-0.2,-0.64,-0.54,0.06,0.59,0.58,0.11,-0.34,-0.44,-0.22,0.05,0.21,0.21,0.13,0.03,-0.06,-0.13,-0.18,-0.17,-0.04,0.21,0.37,0.24,-0.11,-0.36,-0.31,-0.1,0.08,0.18,0.28,0.3,0.09,-0.28,-0.48,-0.33,0.06,0.37,0.39,0.17,-0.08,-0.2,-0.22,-0.21,-0.13,0.1,0.36,0.36,0.04,-0.32,-0.36,-0.09,0.15,0.14,0.04,0.05,0.12,0.05,-0.16,-0.29,-0.14,0.16,0.31,0
0.1621141573089778,0.16209784082460815,-0.34,0.3,0.13690000000000002,13.280000000000001,0.13414141414141414,36,93,0.25,0.17,-0.11,-0.25,-0.13,0.1,0.19,0.06,-0.15,-0.21,-0.03,0.23,0.3,0.04,-0.29,-0.34,-0.06,0.24,0.27,0.05,-0.14,-0.15,-0.02,0.09,0.07,-0.04,-0.1,-0.07,0.03,0.12,0.14,0.06,-0.11,-0.24,-0.19,0.05,0.3,0.3,0.02,-0.28,-0.32,-0.07,0.21,0.25,0.06,-0.14,-0.13,0.03,0.12,0.02,-0.13,-0.13,0.04,0.19,0.15,-0.03,-0.18,-0.17,0.0,0.17,0.16,-0.03,-0.17,-0.09,0.11,0.17,0.0,-0.21,-0.21,0.03,0.26,0.26,0.03,-0.19,-0.24,-0.13,0.03,0.14,0.17,0.12,0.01,-0.11,-0.19,-0.17,-0.01,0.21,0.29,0.1,-0.19,-0.29,-0.12,0.12,0.2,0.08,-0.07,-0.1,-0.0,0.1,0.07,-0.06,-0.17,0
0.18051038751274123,0.18050861475286992,-0.45,0.41,0.1456,14.13,0.14272727272727273,34,94,0.41,-0.13,0.07,0.26,0.23,-0.02,-0.3,-0.34,-0.07,0.3,0.41,0.13,-0.28,-0.41,-0.13,0.24,0.32,0.07,-0.2,-0.21,0.0,0.16,0.12,-0.04,-0.13,-0.08,0.03,0.1,0.11,0.06,-0.04,-0.16,-0.21,-0.07,0.22,0.37,0.18,-0.22,-0.45,-0.25,0.14,0.33,0.22,0.03,-0.05,-0.08,-0.18,-0.26,-0.11,0.21,0.4,0.24,-0.13,-0.32,-0.2,0.03,0.09,0.01,0.0,0.12,0.19,0.04,-0.21,-0.27,-0.07,0.17,0.18,0.01,-0.09,0.01,0.13,0.03,-0.18,-0.24,-0.03,0.22,0.26,0.08,-0.13,-0.18,-0.1,-0.03,0.01,0.06,0.13,0.14,0.02,-0.14,-0.16,-0.04,0.08,0.06,-0.02,-0.03,0.06,0.11,0.03,-0.11,-0.15,-0.07,0.02,0
0.25226771493792066,0.25222757581200356,-0.73,0.76,0.1911,17.410000000000004,0.1758585858585859,36,97,0.34,0.06,0.1,0.16,0.12,-0.08,-0.31,-0.3,0.0,0.31,0.34,0.1,-0.14,-0.21,-0.15,-0.07,0.01,0.11,0.19,0.16,-0.01,-0.18,-0.21,-0.07,0.1,0.13,0.02,-0.06,0.03,0.16,0.11,-0.17,-0.39,-0.24,0.21,0.5,0.34,-0.12,-0.44,-0.35,0.01,0.26,0.22,0.03,-0.06,0.0,0.04,-0.07,-0.18,-0.13,0.07,0.19,0.13,0.01,0.0,0.03,-0.09,-0.28,-0.26,0.11,0.48,0.43,-0.04,-0.46,-0.44,-0.05,0.29,0.31,0.07,-0.11,-0.09,0.02,0.0,-0.11,-0.14,0.0,0.17,0.19,0.06,-0.08,-0.11,-0.08,-0.09,-0.11,-0.01,0.2,0.36,0.25,-0.14,-0.53,-0.55,-0.09,0.53,0.76,0.33,-0.39,-0.73,-0.41,0.19,0.49,0.29,0
0.2228811342397557,0.22288077530374845,-0.52,0.5,0.1766,15.56,0.15717171717171718,31,98,0.27,-0.05,-0.16,-0.04,0.01,-0.11,-0.19,-0.03,0.22,0.27,0.08,-0.14,-0.19,-0.1,-0.01,0.03,0.07,0.12,0.12,0.01,-0.13,-0.17,-0.06,0.08,0.11,0.03,-0.01,0.06,0.1,-0.03,-0.24,-0.26,-0.01,0.3,0.35,0.12,-0.2,-0.33,-0.22,0.02,0.21,0.25,0.13,-0.07,-0.21,-0.14,0.06,0.16,0.04,-0.16,-0.18,0.06,0.33,0.31,-0.05,-0.44,-0.46,-0.03,0.45,0.5,0.09,-0.33,-0.36,-0.09,0.14,0.12,0.01,-0.01,0.06,0.11,0.06,-0.05,-0.18,-0.25,-0.15,0.14,0.42,0.4,0.03,-0.39,-0.52,-0.25,0.18,0.42,0.34,0.07,-0.15,-0.21,-0.18,-0.13,-0.06,0.07,0.24,0.33,0.2,-0.14,-0.44,-0.43,-0.07,0.35,0.47,0
0.18525387985140823,0.1852128235301217,-0.41,0.39,0.1595,14.5,0.14646464646464646,34,98,0.29,0.22,-0.13,-0.29,-0.23,-0.11,-0.02,0.13,0.29,0.27,0.0,-0.29,-0.36,-0.14,0.16,0.3,0.2,-0.0,-0.15,-0.17,-0.12,-0.02,0.12,0.19,0.1,-0.1,-0.2,-0.07,0.12,0.15,-0.01,-0.15,-0.1,0.08,0.16,0.04,-0.14,-0.13,0.05,0.18,0.08,-0.13,-0.21,-0.08,0.15,0.25,0.11,-0.11,-0.22,-0.16,-0.02,0.1,0.17,0.15,0.04,-0.11,-0.2,-0.14,-0.0,0.09,0.11,0.14,0.13,0.0,-0.21,-0.31,-0.17,0.14,0.37,0.32,0.03,-0.3,-0.41,-0.18,0.21,0.39,0.2,-0.15,-0.29,-0.09,0.16,0.16,-0.04,-0.2,-0.13,0.11,0.28,0.19,-0.08,-0.29,-0.24,-0.03,0.16,0.22,0.2,0.08,-0.12,-0.31,-0.29,-0.02,0.28,0
0.21909815152118467,0.21907478175271566,-0.54,0.46,0.1794,14.52,0.14666666666666667,26,95,0.31,0.31,0.1,-0.09,-0.12,-0.08,-0.11,-0.14,-0.06,0.13,0.26,0.23,0.07,-0.14,-0.3,-0.34,-0.17,0.18,0.46,0.45,0.11,-0.34,-0.54,-0.35,0.08,0.38,0.35,0.12,-0.06,-0.1,-0.11,-0.17,-0.21,-0.11,0.15,0.39,0.38,0.06,-0.34,-0.49,-0.28,0.08,0.34,0.37,0.19,-0.07,-0.27,-0.3,-0.16,0.05,0.2,0.24,0.18,0.01,-0.18,-0.26,-0.15,0.02,0.12,0.15,0.17,0.13,-0.04,-0.26,-0.31,-0.09,0.21,0.31,0.14,-0.09,-0.15,-0.06,-0.02,-0.07,-0.07,0.05,0.19,0.18,-0.01,-0.19,-0.19,-0.03,0.11,0.12,0.02,-0.04,-0.03,0.02,0.05,0.03,-0.04,-0.13,-0.16,-0.04,0.2,0.36,0.21,-0.21,-0.51,-0.35,0.15,0
0.1951742810925661,0.1951629831704773,-0.62,0.52,0.1399,12.400000000000002,0.12525252525252528,34,96,0.5,0.5,0.35,-0.08,-0.32,-0.19,0.06,0.07,-0.12,-0.15,0.15,0.45,0.31,-0.21,-0.62,-0.48,0.07,0.52,0.52,0.16,-0.21,-0.37,-0.34,-0.17,0.08,0.34,0.41,0.19,-0.18,-0.42,-0.33,-0.01,0.26,0.28,0.12,-0.05,-0.13,-0.11,-0.07,-0.05,0.0,0.1,0.16,0.1,-0.06,-0.15,-0.11,-0.01,0.06,0.04,0.02,0.05,0.09,0.02,-0.1,-0.14,-0.05,0.07,0.1,0.04,-0.01,-0.01,0.01,-0.02,-0.08,-0.09,0.01,0.16,0.18,0.01,-0.19,-0.21,-0.02,0.17,0.16,-0.0,-0.11,-0.03,0.07,0.03,-0.09,-0.13,-0.02,0.13,0.15,0.05,-0.07,-0.12,-0.06,0.02,0.05,0.03,-0.02,-0.04,0.0,0.07,0.09,0.02,-0.09,-0.15,-0.1,0
0.19253311403496282,0.19250483110820882,-0.5,0.42,0.15610000000000002,13.110000000000001,0.13242424242424244,31,97,0.27,0.03,0.14,0.16,0.1,-0.01,-0.15,-0.23,-0.16,0.06,0.27,0.3,0.09,-0.19,-0.33,-0.22,0.05,0.23,0.21,0.08,-0.02,-0.07,-0.12,-0.16,-0.12,0.04,0.23,0.29,0.11,-0.18,-0.34,-0.23,0.07,0.28,0.22,0.0,-0.13,-0.08,0.02,0.01,-0.09,-0.12,0.0,0.18,0.24,0.1,-0.14,-0.3,-0.26,-0.01,0.27,0.33,0.12,-0.14,-0.22,-0.13,-0.01,0.03,0.05,0.09,0.1,0.03,-0.07,-0.09,-0.04,-0.0,-0.02,-0.03,0.03,0.11,0.13,0.03,-0.13,-0.21,-0.15,0.02,0.2,0.28,0.18,-0.08,-0.33,-0.36,-0.13,0.2,0.42,0.37,0.06,-0.32,-0.5,-0.31,0.11,0.41,0.38,0.1,-0.15,-0.23,-0.2,-0.13,-0.0,0.15,0.26,0
0.15325795248534416,0.15324216130034188,-0.45,0.39,0.11779999999999999,11.220000000000002,0.11333333333333336,37,90,0.29,0.2,-0.02,-0.25,-0.29,-0.09,0.19,0.28,0.1,-0.17,-0.23,-0.04,0.2,0.22,-0.02,-0.28,-0.28,0.02,0.35,0.39,0.05,-0.36,-0.45,-0.12,0.27,0.36,0.14,-0.12,-0.19,-0.09,0.02,0.01,-0.03,-0.0,0.1,0.12,0.03,-0.06,-0.09,-0.08,-0.09,-0.05,0.09,0.23,0.2,-0.03,-0.26,-0.26,-0.04,0.18,0.22,0.09,-0.06,-0.11,-0.1,-0.07,-0.0,0.11,0.16,0.06,-0.12,-0.19,-0.07,0.11,0.17,0.06,-0.07,-0.11,-0.04,0.04,0.05,0.01,-0.0,0.01,-0.01,-0.05,-0.03,0.06,0.11,0.02,-0.12,-0.16,-0.02,0.14,0.17,0.03,-0.11,-0.13,-0.03,0.06,0.08,0.03,-0.03,-0.05,-0.0,0.08,0.08,-0.04,-0.17,-0.12,0.08,0
0.2289104628451919,0.22890338573293323,-0.67,0.64,0.17300000000000004,16.26,0.16424242424242425,33,95,0.21,0.21,0.14,-0.05,-0.16,-0.13,-0.01,0.07,0.06,0.03,0.04,0.08,0.04,-0.11,-0.25,-0.17,0.16,0.42,0.28,-0.19,-0.51,-0.29,0.25,0.5,0.17,-0.33,-0.41,-0.0,0.4,0.33,-0.11,-0.41,-0.27,0.09,0.29,0.22,0.04,-0.07,-0.13,-0.18,-0.16,-0.0,0.23,0.33,0.15,-0.17,-0.37,-0.26,0.05,0.28,0.24,0.03,-0.12,-0.09,-0.01,-0.02,-0.09,-0.07,0.05,0.15,0.15,0.05,-0.08,-0.16,-0.16,-0.05,0.1,0.2,0.15,-0.0,-0.15,-0.17,-0.06,0.06,0.09,0.04,0.0,0.02,0.03,-0.01,-0.07,-0.06,0.01,0.03,-0.02,-0.06,0.04,0.2,0.22,-0.03,-0.36,-0.45,-0.13,0.39,0.64,0.34,-0.28,-0.67,-0.45,0.14,0.51,0
0.23085709865628998,0.2308560373912712,-0.51,0.57,0.19130000000000003,16.41,0.16575757575757577,28,92,0.36,0.36,-0.04,-0.26,-0.18,0.01,0.08,0.02,-0.06,-0.07,0.02,0.16,0.21,0.06,-0.21,-0.36,-0.2,0.16,0.38,0.29,0.01,-0.21,-0.25,-0.17,-0.06,0.04,0.18,0.31,0.26,-0.05,-0.43,-0.51,-0.13,0.41,0.57,0.2,-0.28,-0.4,-0.14,0.13,0.14,-0.02,-0.1,0.03,0.21,0.2,-0.03,-0.28,-0.33,-0.15,0.14,0.37,0.37,0.11,-0.26,-0.46,-0.32,0.06,0.34,0.34,0.13,-0.08,-0.18,-0.18,-0.15,-0.08,0.06,0.22,0.27,0.14,-0.1,-0.29,-0.29,-0.09,0.16,0.27,0.18,0.01,-0.09,-0.09,-0.08,-0.12,-0.15,-0.03,0.23,0.4,0.23,-0.2,-0.49,-0.37,0.06,0.38,0.33,0.07,-0.11,-0.14,-0.12,-0.13,-0.08,0.05,0.17,0
0.25368484385157897,0.2536671046864374,-0.62,0.6,0.21700000000000003,18.619999999999997,0.18808080808080804,29,97,0.29,0.18,0.11,-0.0,-0.13,-0.23,-0.21,-0.04,0.16,0.29,0.25,0.07,-0.19,-0.36,-0.31,-0.02,0.31,0.41,0.19,-0.16,-0.36,-0.23,0.07,0.23,0.1,-0.11,-0.09,0.12,0.22,0.03,-0.24,-0.28,-0.08,0.15,0.23,0.2,0.12,-0.06,-0.32,-0.41,-0.14,0.34,0.6,0.32,-0.26,-0.62,-0.42,0.12,0.48,0.38,-0.02,-0.31,-0.24,0.04,0.22,0.13,-0.1,-0.24,-0.17,0.09,0.32,0.32,0.05,-0.3,-0.44,-0.25,0.15,0.43,0.38,0.06,-0.25,-0.33,-0.19,-0.01,0.1,0.14,0.18,0.19,0.09,-0.17,-0.38,-0.32,-0.01,0.33,0.43,0.23,-0.1,-0.34,-0.34,-0.13,0.13,0.24,0.21,0.13,0.04,-0.12,-0.29,-0.31,-0.07,0.27,0.42,0
0.20107709964090886,0.2010770001765493,-0.52,0.47,0.15580000000000002,15.17,0.15323232323232322,33,93,0.37,0.22,-0.16,-0.37,-0.25,0.07,0.26,0.17,-0.05,-0.16,-0.09,0.08,0.16,0.07,-0.1,-0.19,-0.1,0.08,0.19,0.13,-0.02,-0.13,-0.11,-0.03,0.03,0.03,0.05,0.08,0.05,-0.04,-0.1,-0.07,-0.0,0.02,-0.0,0.03,0.12,0.15,-0.01,-0.26,-0.31,-0.02,0.34,0.36,-0.01,-0.34,-0.25,0.12,0.28,0.03,-0.27,-0.2,0.18,0.39,0.16,-0.27,-0.41,-0.14,0.22,0.3,0.1,-0.09,-0.08,0.01,-0.02,-0.18,-0.21,0.06,0.4,0.41,-0.01,-0.48,-0.52,-0.08,0.4,0.47,0.15,-0.21,-0.3,-0.15,0.03,0.1,0.08,0.04,0.01,0.01,0.02,0.01,-0.07,-0.15,-0.12,0.06,0.26,0.25,-0.01,-0.28,-0.3,-0.06,0.19,0.24,0.13,0
0.19180980162650707,0.19180039103192673,-0.47,0.49,0.1579,15.7,0.15858585858585858,36,95,0.2,-0.02,-0.13,-0.18,-0.13,0.02,0.18,0.2,0.03,-0.17,-0.17,0.01,0.15,0.09,-0.09,-0.15,-0.02,0.15,0.15,-0.03,-0.18,-0.12,0.09,0.17,0.02,-0.14,-0.1,0.09,0.15,0.0,-0.15,-0.1,0.07,0.12,0.0,-0.09,-0.02,0.1,0.08,-0.1,-0.21,-0.08,0.18,0.28,0.09,-0.16,-0.21,-0.09,-0.01,-0.0,0.07,0.24,0.25,-0.04,-0.39,-0.38,0.01,0.38,0.33,-0.04,-0.28,-0.12,0.19,0.19,-0.14,-0.37,-0.16,0.31,0.49,0.16,-0.33,-0.47,-0.15,0.25,0.31,0.05,-0.16,-0.06,0.15,0.12,-0.14,-0.32,-0.17,0.18,0.37,0.26,-0.03,-0.26,-0.31,-0.18,0.04,0.23,0.29,0.17,-0.04,-0.22,-0.25,-0.13,0.04,0.14,0.16,0
0.21067985190805502,0.2106783330103027,-0.49,0.45,0.1666,15.64,0.157979797979798,33,98,0.2,0.13,0.06,-0.05,-0.18,-0.2,-0.08,0.11,0.19,0.1,-0.01,-0.02,0.02,-0.03,-0.19,-0.25,-0.03,0.33,0.45,0.15,-0.31,-0.49,-0.23,0.16,0.31,0.19,0.06,0.02,-0.06,-0.25,-0.3,-0.05,0.29,0.36,0.11,-0.17,-0.23,-0.1,0.01,0.03,0.04,0.1,0.12,0.01,-0.13,-0.14,0.01,0.14,0.08,-0.13,-0.2,0.03,0.31,0.27,-0.1,-0.43,-0.36,0.07,0.45,0.4,0.0,-0.32,-0.29,-0.05,0.09,0.03,-0.03,0.09,0.25,0.22,-0.08,-0.39,-0.4,-0.09,0.29,0.45,0.3,-0.03,-0.33,-0.4,-0.21,0.11,0.33,0.31,0.08,-0.16,-0.24,-0.13,0.04,0.1,0.01,-0.05,0.04,0.17,0.13,-0.09,-0.23,-0.13,0.04,0.09,0.01,0
0.18718172987767798,0.18717956619246662,-0.43,0.44,0.14950000000000002,15.110000000000001,0.15262626262626264,36,93,0.44,0.01,0.14,0.21,0.02,-0.32,-0.4,-0.07,0.37,0.44,0.09,-0.28,-0.31,-0.07,0.12,0.11,-0.0,-0.03,0.06,0.13,0.05,-0.14,-0.25,-0.15,0.12,0.3,0.22,-0.04,-0.22,-0.19,-0.04,0.06,0.08,0.08,0.07,0.04,-0.04,-0.12,-0.11,-0.0,0.1,0.09,-0.03,-0.08,0.02,0.15,0.09,-0.14,-0.28,-0.14,0.18,0.33,0.18,-0.12,-0.26,-0.15,0.02,0.07,0.03,0.07,0.19,0.15,-0.11,-0.36,-0.29,0.07,0.36,0.29,-0.03,-0.22,-0.12,0.06,0.06,-0.11,-0.17,0.02,0.26,0.26,-0.03,-0.3,-0.23,0.06,0.19,0.03,-0.1,0.04,0.24,0.13,-0.26,-0.43,-0.12,0.34,0.43,0.09,-0.23,-0.22,-0.04,-0.0,-0.07,-0.01,0.2,0
0.20941585422312228,0.20941563933956797,-0.41,0.42,0.1741,16.98,0.1715151515151515,33,96,0.41,0.28,0.02,-0.33,-0.34,0.06,0.41,0.26,-0.2,-0.41,-0.13,0.29,0.36,0.05,-0.27,-0.28,-0.07,0.14,0.22,0.17,0.02,-0.17,-0.27,-0.16,0.11,0.29,0.2,-0.06,-0.21,-0.11,0.07,0.09,-0.04,-0.11,-0.0,0.14,0.14,-0.01,-0.15,-0.14,-0.03,0.05,0.09,0.13,0.12,-0.03,-0.24,-0.28,-0.03,0.3,0.36,0.09,-0.24,-0.34,-0.18,0.09,0.28,0.29,0.08,-0.23,-0.38,-0.19,0.2,0.42,0.24,-0.17,-0.41,-0.25,0.15,0.41,0.27,-0.13,-0.4,-0.29,0.1,0.38,0.27,-0.09,-0.33,-0.23,0.07,0.25,0.16,-0.04,-0.14,-0.08,0.02,0.06,0.03,-0.02,-0.06,-0.04,0.04,0.13,0.1,-0.06,-0.19,-0.13,0.05,0.13,0.04,0
0.15330035877322665,0.15322829373193453,-0.45,0.42,0.11349999999999999,10.590000000000003,0.106969696969697,28,87,0.32,-0.05,0.03,0.14,0.07,-0.17,-0.29,-0.11,0.2,0.32,0.15,-0.13,-0.24,-0.13,0.04,0.11,0.07,0.02,0.01,0.0,-0.03,-0.06,-0.05,0.01,0.04,0.01,0.01,0.06,0.08,-0.04,-0.18,-0.18,0.01,0.23,0.27,0.08,-0.18,-0.3,-0.19,0.06,0.23,0.21,0.07,-0.07,-0.14,-0.13,-0.06,0.05,0.1,0.08,0.02,-0.02,-0.03,-0.02,-0.03,-0.04,-0.01,0.04,0.06,0.04,-0.01,-0.04,-0.04,-0.03,-0.02,0.03,0.08,0.07,-0.01,-0.07,-0.06,-0.01,-0.01,-0.05,-0.01,0.14,0.23,0.06,-0.26,-0.37,-0.09,0.28,0.34,0.08,-0.17,-0.2,-0.08,-0.0,0.03,0.1,0.17,0.1,-0.15,-0.32,-0.14,0.25,0.42,0.14,-0.32,-0.45,-0.12,0
0.2308159439900112,0.23065567411186746,-0.52,0.57,0.18320000000000003,16.650000000000002,0.1681818181818182,34,97,0.33,0.28,0.33,0.07,-0.12,-0.05,0.03,-0.11,-0.27,-0.14,0.24,0.44,0.22,-0.18,-0.37,-0.25,-0.01,0.17,0.22,0.15,0.01,-0.13,-0.17,-0.08,0.04,0.07,0.02,-0.0,0.06,0.11,0.02,-0.17,-0.23,-0.06,0.2,0.3,0.13,-0.16,-0.31,-0.19,0.09,0.27,0.21,-0.02,-0.19,-0.18,-0.04,0.08,0.11,0.06,-0.02,-0.07,-0.06,0.0,0.08,0.09,0.01,-0.11,-0.16,-0.06,0.12,0.25,0.17,-0.08,-0.3,-0.3,-0.03,0.31,0.42,0.18,-0.22,-0.47,-0.36,0.07,0.44,0.42,0.05,-0.27,-0.26,-0.05,0.05,-0.04,-0.1,0.07,0.31,0.33,-0.0,-0.41,-0.52,-0.2,0.3,0.57,0.41,-0.02,-0.41,-0.51,-0.27,0.15,0.42,0.35,0.09,0
0.17813197354770424,0.17812386139986974,-0.39,0.41,0.1441,11.850000000000001,0.1196969696969697,26,92,0.14,0.0,-0.12,-0.1,0.04,0.14,0.12,0.03,-0.05,-0.11,-0.13,-0.07,0.04,0.13,0.15,0.1,-0.02,-0.16,-0.22,-0.14,0.07,0.24,0.24,0.09,-0.1,-0.21,-0.21,-0.12,0.03,0.17,0.25,0.2,0.03,-0.19,-0.34,-0.27,-0.01,0.27,0.35,0.21,-0.02,-0.21,-0.31,-0.26,-0.02,0.29,0.41,0.19,-0.18,-0.36,-0.2,0.07,0.16,0.08,0.01,0.02,0.03,0.0,-0.02,-0.04,-0.11,-0.17,-0.07,0.17,0.35,0.25,-0.09,-0.39,-0.39,-0.09,0.26,0.39,0.23,-0.02,-0.2,-0.25,-0.19,-0.05,0.13,0.25,0.22,0.03,-0.17,-0.25,-0.14,0.04,0.15,0.14,0.07,-0.02,-0.09,-0.12,-0.08,0.03,0.12,0.11,0.02,-0.06,-0.08,-0.06,-0.01,0
0.15850867484147357,0.15850157727921826,-0.54,0.44,0.1197,10.570000000000002,0.10676767676767679,28,92,0.08,0.03,0.05,0.05,0.04,0.02,-0.04,-0.08,-0.06,0.02,0.06,0.03,-0.01,-0.02,0.01,0.05,0.04,-0.04,-0.15,-0.14,0.03,0.23,0.25,0.06,-0.2,-0.28,-0.16,0.05,0.17,0.16,0.11,0.05,-0.03,-0.14,-0.2,-0.13,0.04,0.2,0.21,0.09,-0.07,-0.16,-0.14,-0.07,0.02,0.1,0.13,0.08,-0.01,-0.05,-0.02,-0.02,-0.11,-0.19,-0.08,0.22,0.44,0.27,-0.2,-0.54,-0.41,0.07,0.44,0.41,0.07,-0.25,-0.31,-0.12,0.11,0.18,0.06,-0.1,-0.09,0.07,0.17,0.05,-0.17,-0.23,-0.05,0.16,0.18,0.06,-0.04,-0.05,-0.06,-0.1,-0.09,0.02,0.17,0.18,0.03,-0.14,-0.18,-0.07,0.07,0.12,0.07,-0.02,-0.07,-0.02,0.06,0
0.1465230357315873,0.14652300160725618,-0.38,0.43,0.11250000000000002,10.839999999999998,0.10949494949494948,36,94,0.15,0.05,-0.06,-0.12,-0.02,0.14,0.15,-0.01,-0.15,-0.12,0.02,0.07,0.01,-0.0,0.1,0.16,0.0,-0.28,-0.35,-0.04,0.37,0.43,0.09,-0.28,-0.35,-0.13,0.1,0.17,0.11,0.06,0.03,-0.03,-0.14,-0.18,-0.04,0.15,0.21,0.06,-0.13,-0.13,0.02,0.11,0.01,-0.17,-0.15,0.1,0.33,0.24,-0.12,-0.38,-0.29,0.03,0.27,0.25,0.07,-0.09,-0.13,-0.1,-0.05,-0.0,0.04,0.06,0.09,0.09,0.02,-0.1,-0.19,-0.13,0.05,0.2,0.19,0.02,-0.14,-0.17,-0.04,0.09,0.09,-0.02,-0.07,0.0,0.1,0.07,-0.03,-0.08,-0.06,-0.03,0.0,0.06,0.11,0.08,-0.06,-0.16,-0.11,0.04,0.15,0.11,-0.02,-0.1,-0.07,0.01,0.05,0
0.22169799277395363,0.2216776939613005,-0.66,0.7,0.15600000000000003,14.290000000000003,0.14434343434343436,31,92,0.07,0.01,-0.04,-0.02,0.04,0.07,0.04,-0.03,-0.07,-0.05,-0.01,0.01,0.02,0.04,0.05,0.03,-0.02,-0.07,-0.06,-0.02,-0.01,-0.01,0.07,0.17,0.15,-0.07,-0.31,-0.3,0.01,0.31,0.32,0.08,-0.14,-0.18,-0.12,-0.08,-0.07,0.03,0.2,0.31,0.16,-0.17,-0.4,-0.29,0.05,0.28,0.24,0.05,-0.07,-0.04,-0.01,-0.08,-0.18,-0.18,0.03,0.33,0.45,0.18,-0.34,-0.66,-0.42,0.23,0.7,0.53,-0.1,-0.56,-0.44,0.02,0.3,0.2,-0.03,-0.08,0.03,0.09,-0.02,-0.15,-0.13,0.01,0.12,0.13,0.08,-0.01,-0.12,-0.15,-0.04,0.1,0.1,-0.01,-0.08,0.0,0.14,0.14,-0.06,-0.29,-0.3,0.0,0.37,0.47,0.16,-0.32,-0.54,0
0.21907076482269378,0.21905971788532919,-0.53,0.59,0.1716,15.91,0.16070707070707071,32,93,0.45,-0.31,0.15,0.45,0.36,0.03,-0.23,-0.24,-0.1,-0.0,0.02,0.05,0.11,0.12,0.03,-0.06,-0.06,-0.04,-0.08,-0.12,-0.01,0.18,0.25,0.08,-0.18,-0.26,-0.11,0.11,0.18,0.09,-0.06,-0.11,-0.03,0.09,0.09,-0.05,-0.18,-0.11,0.13,0.27,0.12,-0.16,-0.28,-0.15,0.1,0.23,0.16,-0.03,-0.14,-0.08,0.04,0.04,-0.1,-0.17,-0.01,0.3,0.39,0.07,-0.39,-0.53,-0.2,0.3,0.52,0.3,-0.1,-0.35,-0.27,-0.04,0.12,0.11,0.02,0.0,0.09,0.14,0.02,-0.18,-0.26,-0.14,0.06,0.21,0.27,0.21,-0.01,-0.31,-0.46,-0.25,0.24,0.59,0.44,-0.08,-0.5,-0.47,-0.08,0.26,0.34,0.17,-0.04,-0.16,-0.14,-0.05,0.04,0
0.15722277188753542,0.15722121358137395,-0.45,0.4,0.11370000000000001,10.770000000000001,0.10878787878787881,33,87,0.34,0.07,0.05,-0.03,-0.11,-0.07,0.13,0.26,0.1,-0.22,-0.34,-0.12,0.17,0.23,0.1,0.03,0.03,-0.08,-0.28,-0.28,0.04,0.39,0.4,0.05,-0.31,-0.36,-0.12,0.14,0.23,0.14,-0.0,-0.1,-0.09,-0.02,0.04,0.01,-0.05,-0.05,0.04,0.11,0.08,0.0,-0.06,-0.12,-0.16,-0.1,0.13,0.35,0.29,-0.09,-0.45,-0.39,0.04,0.37,0.3,-0.01,-0.17,-0.09,0.01,-0.03,-0.12,-0.05,0.14,0.23,0.1,-0.13,-0.22,-0.11,0.06,0.13,0.07,-0.0,-0.02,-0.01,-0.02,-0.06,-0.07,0.01,0.12,0.11,0.0,-0.09,-0.09,-0.02,0.03,0.03,0.01,0.01,0.05,0.05,-0.01,-0.08,-0.07,-0.01,0.02,0.01,0.03,0.08,0.1,-0.01,-0.16,0
0.2206241147291021,0.2206213724914248,-0.5,0.55,0.17390000000000005,15.26,0.15414141414141413,29,96,0.2,-0.2,-0.05,0.14,0.2,0.11,-0.04,-0.13,-0.12,-0.03,0.04,0.04,-0.01,0.01,0.09,0.11,-0.01,-0.18,-0.2,-0.01,0.18,0.16,-0.01,-0.09,0.02,0.12,0.01,-0.23,-0.29,-0.04,0.32,0.43,0.17,-0.25,-0.47,-0.33,0.04,0.37,0.45,0.23,-0.18,-0.47,-0.4,-0.02,0.33,0.35,0.11,-0.08,-0.08,-0.04,-0.12,-0.23,-0.15,0.14,0.38,0.33,0.02,-0.27,-0.33,-0.21,-0.04,0.11,0.25,0.33,0.22,-0.09,-0.44,-0.5,-0.15,0.34,0.55,0.3,-0.12,-0.34,-0.25,-0.07,0.04,0.05,0.09,0.18,0.2,0.04,-0.23,-0.35,-0.19,0.14,0.34,0.25,-0.0,-0.19,-0.2,-0.08,0.04,0.09,0.06,0.02,0.02,0.05,0.03,-0.08,-0.16,0
0.1615735126807609,0.1615634859737806,-0.3,0.36,0.13599999999999998,12.940000000000001,0.13070707070707072,35,94,0.26,-0.1,0.04,0.13,0.12,0.08,0.05,-0.03,-0.18,-0.26,-0.12,0.19,0.36,0.19,-0.15,-0.3,-0.13,0.11,0.16,0.02,-0.13,-0.13,0.05,0.22,0.2,-0.04,-0.28,-0.28,-0.03,0.23,0.28,0.13,-0.09,-0.23,-0.2,-0.04,0.13,0.21,0.15,-0.0,-0.17,-0.23,-0.14,0.09,0.27,0.24,-0.01,-0.26,-0.27,-0.02,0.24,0.23,-0.04,-0.24,-0.12,0.15,0.23,0.03,-0.19,-0.18,0.0,0.12,0.07,0.0,0.04,0.09,-0.0,-0.18,-0.21,-0.01,0.22,0.22,0.01,-0.16,-0.11,0.04,0.07,-0.05,-0.14,-0.05,0.15,0.25,0.11,-0.16,-0.3,-0.17,0.07,0.21,0.19,0.08,-0.04,-0.14,-0.2,-0.13,0.05,0.18,0.16,0.03,-0.04,-0.01,-0.02,0
0.20661558508495914,0.2065687294824655,-0.5,0.53,0.1618,13.95,0.1409090909090909,30,93,0.49,-0.14,-0.25,-0.13,0.22,0.47,0.31,-0.14,-0.49,-0.41,-0.01,0.32,0.35,0.15,-0.06,-0.18,-0.22,-0.16,0.0,0.18,0.22,0.11,-0.03,-0.13,-0.16,-0.14,-0.01,0.15,0.2,0.08,-0.06,-0.1,-0.06,-0.06,-0.08,-0.02,0.12,0.18,0.08,-0.08,-0.13,-0.06,0.01,0.0,-0.02,0.01,0.07,0.08,0.02,-0.04,-0.05,-0.05,-0.08,-0.08,0.04,0.21,0.24,0.02,-0.26,-0.32,-0.08,0.22,0.29,0.09,-0.15,-0.17,0.01,0.13,0.02,-0.16,-0.12,0.11,0.25,0.1,-0.12,-0.16,-0.06,-0.02,-0.08,-0.05,0.14,0.34,0.26,-0.13,-0.5,-0.46,-0.01,0.45,0.53,0.21,-0.21,-0.41,-0.33,-0.08,0.15,0.3,0.3,0.13,-0.16,-0.35,-0.29,0
0.22538189811961387,0.22537548668832644,-0.71,0.61,0.18049999999999997,16.049999999999997,0.16212121212121208,32,96,0.27,-0.02,0.2,0.24,0.14,0.05,-0.02,-0.11,-0.23,-0.27,-0.1,0.24,0.46,0.32,-0.12,-0.47,-0.41,-0.01,0.34,0.36,0.1,-0.18,-0.27,-0.13,0.09,0.19,0.09,-0.08,-0.14,-0.04,0.09,0.08,-0.03,-0.07,0.02,0.08,-0.03,-0.15,-0.07,0.17,0.25,0.02,-0.27,-0.29,-0.01,0.25,0.26,0.08,-0.1,-0.18,-0.16,-0.08,0.04,0.17,0.21,0.12,-0.04,-0.2,-0.26,-0.16,0.07,0.27,0.29,0.13,-0.11,-0.28,-0.28,-0.11,0.15,0.29,0.2,-0.03,-0.15,-0.08,0.04,0.0,-0.13,-0.17,0.0,0.23,0.28,0.1,-0.11,-0.19,-0.16,-0.16,-0.14,0.06,0.39,0.51,0.16,-0.44,-0.71,-0.35,0.3,0.61,0.37,-0.08,-0.29,-0.2,-0.07,0
0.21575449010391418,0.21575439740593932,-0.45,0.48,0.17740000000000003,15.67,0.15828282828282828,31,95,0.41,-0.05,-0.07,0.02,0.2,0.31,0.18,-0.14,-0.41,-0.37,-0.02,0.33,0.39,0.14,-0.14,-0.21,-0.11,-0.04,-0.04,-0.01,0.1,0.2,0.14,-0.06,-0.21,-0.18,-0.04,0.06,0.1,0.15,0.18,0.07,-0.19,-0.37,-0.26,0.11,0.43,0.41,0.05,-0.32,-0.41,-0.19,0.12,0.28,0.22,0.04,-0.1,-0.13,-0.06,0.0,0.01,-0.02,-0.03,0.0,0.08,0.15,0.12,-0.04,-0.25,-0.29,-0.07,0.26,0.38,0.15,-0.2,-0.32,-0.12,0.15,0.16,-0.05,-0.18,-0.03,0.25,0.31,0.02,-0.36,-0.45,-0.14,0.29,0.48,0.3,-0.06,-0.34,-0.38,-0.19,0.1,0.29,0.28,0.12,-0.06,-0.16,-0.21,-0.19,-0.06,0.17,0.33,0.21,-0.09,-0.27,-0.17,0.04,0
0.1876832437912346,0.18767724955358867,-0.38,0.38,0.1543,14.040000000000001,0.14181818181818182,32,97,0.36,0.1,-0.01,-0.1,0.02,0.22,0.24,0.01,-0.28,-0.36,-0.15,0.18,0.38,0.29,-0.01,-0.29,-0.32,-0.11,0.12,0.17,0.11,0.08,0.09,0.0,-0.2,-0.31,-0.16,0.15,0.36,0.27,0.01,-0.21,-0.26,-0.17,-0.02,0.13,0.21,0.18,0.04,-0.12,-0.17,-0.14,-0.09,-0.01,0.15,0.29,0.21,-0.12,-0.38,-0.28,0.1,0.34,0.18,-0.15,-0.26,-0.02,0.27,0.25,-0.09,-0.38,-0.3,0.07,0.37,0.31,0.01,-0.24,-0.25,-0.08,0.08,0.12,0.07,0.0,0.01,0.04,0.03,-0.07,-0.16,-0.13,0.03,0.2,0.24,0.09,-0.15,-0.29,-0.2,0.05,0.25,0.23,0.05,-0.15,-0.2,-0.08,0.07,0.12,0.07,-0.0,-0.05,-0.07,-0.05,0.03,0.1,0
0.2231725789607675,0.22313305447647153,-0.57,0.57,0.17379999999999998,16.9,0.1707070707070707,34,98,0.13,0.06,-0.06,-0.13,-0.06,0.07,0.13,0.06,-0.06,-0.1,-0.05,0.03,0.05,0.05,0.04,0.0,-0.08,-0.14,-0.06,0.12,0.25,0.14,-0.13,-0.31,-0.2,0.09,0.28,0.21,-0.02,-0.17,-0.15,-0.03,0.06,0.08,0.02,-0.05,-0.04,0.07,0.14,0.06,-0.15,-0.29,-0.15,0.18,0.39,0.21,-0.19,-0.36,-0.14,0.2,0.25,-0.03,-0.25,-0.14,0.15,0.27,0.1,-0.13,-0.22,-0.16,-0.04,0.11,0.24,0.22,0.01,-0.23,-0.25,-0.05,0.08,0.02,-0.04,0.13,0.34,0.22,-0.24,-0.57,-0.37,0.18,0.55,0.4,-0.05,-0.33,-0.23,0.02,0.07,-0.09,-0.15,0.08,0.4,0.38,-0.07,-0.54,-0.55,-0.08,0.44,0.57,0.26,-0.19,-0.43,-0.33,-0.02,0
0.25928748523598283,0.25928370561992514,-0.57,0.64,0.21619999999999998,18.790000000000003,0.18979797979797983,29,97,0.48,0.2,0.19,0.04,0.02,0.14,0.12,-0.19,-0.48,-0.31,0.26,0.64,0.38,-0.24,-0.57,-0.29,0.22,0.4,0.1,-0.27,-0.26,0.08,0.32,0.19,-0.13,-0.26,-0.15,0.01,0.06,0.07,0.16,0.21,0.09,-0.18,-0.39,-0.32,0.01,0.37,0.47,0.25,-0.14,-0.43,-0.43,-0.16,0.2,0.42,0.34,0.05,-0.23,-0.32,-0.19,0.0,0.13,0.16,0.15,0.1,-0.0,-0.16,-0.25,-0.17,0.03,0.21,0.25,0.14,-0.02,-0.14,-0.22,-0.22,-0.13,0.1,0.37,0.42,0.12,-0.33,-0.54,-0.31,0.16,0.43,0.31,-0.03,-0.21,-0.13,0.02,0.04,-0.06,-0.11,-0.03,0.1,0.2,0.18,0.04,-0.19,-0.36,-0.28,0.07,0.44,0.46,0.1,-0.33,-0.47,-0.25,0
0.20327813458412097,0.20320098424958474,-0.52,0.44,0.1666,15.16,0.15313131313131315,29,98,0.35,0.09,0.3,0.32,0.19,-0.03,-0.26,-0.35,-0.2,0.11,0.34,0.3,0.01,-0.24,-0.22,0.02,0.15,0.03,-0.14,-0.11,0.09,0.21,0.14,-0.01,-0.12,-0.18,-0.19,-0.07,0.17,0.32,0.21,-0.08,-0.27,-0.2,-0.02,0.04,0.02,0.1,0.26,0.22,-0.13,-0.46,-0.38,0.08,0.43,0.35,0.01,-0.18,-0.15,-0.07,-0.1,-0.1,0.05,0.24,0.26,0.04,-0.23,-0.28,-0.1,0.12,0.19,0.08,-0.08,-0.1,0.04,0.15,0.06,-0.16,-0.25,-0.1,0.16,0.28,0.17,-0.01,-0.12,-0.17,-0.2,-0.15,0.05,0.33,0.42,0.14,-0.3,-0.52,-0.3,0.16,0.44,0.31,-0.05,-0.26,-0.17,0.05,0.12,0.01,-0.1,-0.07,0.07,0.12,0.04,-0.04,-0.03,0
0.24098547674081938,0.24095858565321968,-0.59,0.59,0.19080000000000003,17.380000000000003,0.17555555555555558,31,96,0.16,0.02,-0.02,-0.1,-0.09,0.05,0.16,0.11,-0.05,-0.12,-0.04,0.05,0.02,-0.09,-0.11,0.06,0.26,0.22,-0.1,-0.41,-0.37,0.05,0.49,0.51,0.07,-0.44,-0.55,-0.21,0.24,0.44,0.31,0.01,-0.25,-0.31,-0.18,0.02,0.15,0.19,0.19,0.12,-0.06,-0.3,-0.41,-0.16,0.32,0.59,0.34,-0.24,-0.59,-0.39,0.12,0.44,0.3,-0.05,-0.22,-0.09,0.07,0.03,-0.12,-0.12,0.06,0.2,0.13,-0.06,-0.13,-0.04,0.05,-0.01,-0.13,-0.11,0.06,0.24,0.27,0.09,-0.21,-0.41,-0.32,0.03,0.39,0.47,0.19,-0.24,-0.44,-0.27,0.07,0.24,0.14,0.02,0.03,0.08,-0.01,-0.2,-0.25,-0.07,0.16,0.25,0.19,0.05,-0.12,-0.25,-0.26,0
0.20658412330089646,0.2065108955963341,-0.41,0.45,0.16869999999999996,14.35,0.14494949494949494,27,92,0.3,-0.07,0.18,0.3,0.21,0.01,-0.17,-0.23,-0.17,-0.05,0.08,0.16,0.21,0.18,0.03,-0.21,-0.37,-0.29,0.03,0.37,0.45,0.2,-0.18,-0.41,-0.35,-0.04,0.25,0.31,0.13,-0.07,-0.14,-0.09,-0.02,0.0,0.0,-0.0,-0.01,0.01,0.07,0.13,0.09,-0.07,-0.23,-0.24,-0.06,0.19,0.33,0.22,-0.04,-0.27,-0.28,-0.12,0.06,0.16,0.21,0.22,0.1,-0.17,-0.4,-0.34,0.03,0.4,0.43,0.12,-0.24,-0.35,-0.17,0.06,0.14,0.06,0.02,0.09,0.16,0.03,-0.24,-0.35,-0.15,0.2,0.41,0.3,-0.05,-0.35,-0.34,-0.06,0.2,0.23,0.08,-0.02,-0.02,-0.03,-0.1,-0.15,-0.05,0.14,0.22,0.08,-0.16,-0.22,-0.02,0.22,0.2,0
0.21375921032788273,0.21375245027835355,-0.45,0.41,0.18250000000000002,15.5,0.15656565656565657,30,97,0.41,-0.11,-0.33,-0.17,0.22,0.41,0.19,-0.21,-0.41,-0.25,0.08,0.31,0.3,0.13,-0.09,-0.25,-0.29,-0.16,0.1,0.31,0.3,0.06,-0.2,-0.29,-0.15,0.05,0.17,0.13,0.02,-0.04,-0.05,-0.02,0.02,0.04,-0.02,-0.11,-0.11,0.05,0.23,0.24,-0.0,-0.27,-0.31,-0.1,0.15,0.25,0.22,0.09,-0.09,-0.26,-0.3,-0.13,0.14,0.32,0.31,0.11,-0.15,-0.33,-0.32,-0.12,0.16,0.33,0.3,0.13,-0.09,-0.29,-0.35,-0.21,0.08,0.34,0.37,0.16,-0.12,-0.28,-0.27,-0.13,0.05,0.21,0.24,0.1,-0.08,-0.13,-0.05,-0.0,-0.1,-0.17,-0.02,0.28,0.38,0.09,-0.32,-0.45,-0.16,0.24,0.36,0.14,-0.14,-0.19,-0.02,0.1,0.03,0
0.1683389438008924,0.1683370428634173,-0.53,0.47,0.12840000000000001,11.739999999999998,0.11858585858585857,30,95,0.29,-0.12,-0.14,-0.01,0.16,0.23,0.14,-0.08,-0.28,-0.29,-0.06,0.23,0.34,0.18,-0.1,-0.26,-0.2,-0.04,0.08,0.12,0.1,0.05,0.01,-0.04,-0.09,-0.1,-0.05,0.03,0.09,0.07,0.03,0.01,0.03,-0.01,-0.16,-0.26,-0.07,0.31,0.47,0.15,-0.37,-0.53,-0.17,0.31,0.41,0.12,-0.16,-0.16,-0.02,0.01,-0.08,-0.09,0.07,0.22,0.16,-0.05,-0.22,-0.17,0.01,0.14,0.12,0.0,-0.08,-0.06,0.02,0.08,0.06,-0.03,-0.13,-0.14,-0.01,0.17,0.24,0.12,-0.13,-0.32,-0.26,0.03,0.3,0.31,0.07,-0.18,-0.24,-0.12,0.01,0.09,0.11,0.08,0.01,-0.04,-0.04,-0.02,-0.04,-0.07,-0.03,0.07,0.13,0.06,-0.06,-0.08,0.02,0
0.18525118083294367,0.18524427116647899,-0.53,0.54,0.14459999999999998,13.940000000000001,0.14080808080808083,32,98,0.26,0.07,-0.04,-0.16,-0.1,0.13,0.26,0.11,-0.16,-0.24,-0.06,0.16,0.14,-0.06,-0.15,-0.01,0.13,0.1,-0.03,-0.08,-0.03,-0.01,-0.04,-0.04,0.03,0.1,0.08,0.02,-0.03,-0.08,-0.1,-0.06,0.05,0.15,0.1,-0.08,-0.19,-0.06,0.2,0.27,0.01,-0.32,-0.35,-0.02,0.34,0.36,0.06,-0.24,-0.28,-0.09,0.11,0.14,0.04,-0.04,0.02,0.11,0.06,-0.15,-0.28,-0.13,0.17,0.34,0.2,-0.07,-0.24,-0.21,-0.08,0.04,0.11,0.15,0.12,0.01,-0.1,-0.13,-0.1,-0.07,-0.04,0.08,0.26,0.31,0.05,-0.38,-0.53,-0.18,0.36,0.54,0.22,-0.19,-0.3,-0.13,0.01,-0.03,-0.08,0.07,0.3,0.29,-0.03,-0.34,-0.33,-0.04,0.17,0
0.18906877055717056,0.18904652866424182,-0.42,0.41,0.1579,14.060000000000002,0.14202020202020205,31,97,0.3,0.15,0.07,0.09,0.11,-0.02,-0.25,-0.3,-0.06,0.25,0.29,0.07,-0.14,-0.13,0.01,0.09,-0.0,-0.15,-0.16,0.01,0.23,0.29,0.12,-0.18,-0.37,-0.29,0.04,0.35,0.36,0.07,-0.23,-0.27,-0.08,0.11,0.1,-0.04,-0.08,0.06,0.19,0.13,-0.09,-0.25,-0.2,0.01,0.16,0.16,0.09,0.07,0.03,-0.1,-0.27,-0.26,-0.01,0.31,0.41,0.17,-0.21,-0.42,-0.29,0.06,0.3,0.23,0.01,-0.08,-0.02,0.0,-0.11,-0.21,-0.12,0.14,0.33,0.27,-0.02,-0.3,-0.33,-0.12,0.13,0.24,0.2,0.09,-0.04,-0.17,-0.24,-0.15,0.04,0.21,0.25,0.14,-0.07,-0.26,-0.25,-0.04,0.2,0.24,0.08,-0.12,-0.17,-0.08,0.07,0.14,0.07,0
0.24632295873507204,0.24627811514627118,-0.5,0.52,0.20389999999999994,18.43,0.18616161616161617,31,98,0.27,-0.07,-0.16,-0.09,0.08,0.2,0.16,-0.04,-0.24,-0.27,-0.07,0.22,0.35,0.18,-0.14,-0.3,-0.21,-0.01,0.14,0.2,0.16,0.04,-0.13,-0.22,-0.15,0.02,0.15,0.17,0.1,-0.01,-0.13,-0.17,-0.09,0.07,0.16,0.07,-0.11,-0.13,0.08,0.26,0.14,-0.22,-0.41,-0.22,0.19,0.44,0.35,0.01,-0.33,-0.47,-0.28,0.14,0.5,0.46,0.06,-0.35,-0.42,-0.19,0.03,0.13,0.21,0.31,0.25,-0.1,-0.48,-0.5,-0.07,0.4,0.46,0.12,-0.21,-0.19,0.03,0.09,-0.12,-0.31,-0.16,0.26,0.52,0.31,-0.18,-0.5,-0.39,0.0,0.3,0.29,0.08,-0.04,0.01,0.01,-0.18,-0.36,-0.19,0.25,0.5,0.3,-0.12,-0.33,-0.24,-0.09,-0.04,0
0.18635718392377582,0.18633762368346335,-0.44,0.46,0.14370000000000002,12.99,0.13121212121212122,27,92,0.37,0.02,0.21,0.34,0.19,-0.15,-0.37,-0.27,0.02,0.2,0.17,0.02,-0.05,0.01,0.1,0.07,-0.11,-0.29,-0.25,0.05,0.37,0.42,0.12,-0.28,-0.44,-0.24,0.1,0.27,0.21,0.06,-0.01,-0.04,-0.12,-0.21,-0.15,0.07,0.27,0.25,0.02,-0.19,-0.22,-0.07,0.08,0.09,0.0,0.0,0.13,0.17,-0.03,-0.31,-0.35,-0.03,0.37,0.46,0.14,-0.29,-0.43,-0.18,0.14,0.23,0.12,0.02,0.02,-0.01,-0.11,-0.17,-0.07,0.08,0.15,0.09,0.01,-0.03,-0.04,-0.08,-0.1,-0.05,0.06,0.11,0.07,0.02,0.04,0.04,-0.08,-0.23,-0.2,0.05,0.32,0.32,0.04,-0.26,-0.3,-0.11,0.1,0.16,0.1,0.03,-0.01,-0.03,-0.02,-0.02,-0.05,0
0.21283561732003412,0.21283446619380045,-0.45,0.46,0.17510000000000006,15.879999999999999,0.16040404040404038,28,93,0.36,-0.09,-0.08,0.03,0.18,0.25,0.1,-0.18,-0.36,-0.25,0.08,0.33,0.28,0.05,-0.11,-0.11,-0.12,-0.2,-0.17,0.09,0.39,0.4,0.06,-0.33,-0.45,-0.25,0.07,0.3,0.35,0.22,-0.04,-0.3,-0.39,-0.19,0.16,0.34,0.2,-0.03,-0.1,-0.05,-0.05,-0.13,-0.1,0.07,0.19,0.12,-0.04,-0.09,-0.03,-0.02,-0.09,-0.09,0.07,0.24,0.17,-0.12,-0.33,-0.2,0.16,0.37,0.18,-0.21,-0.36,-0.12,0.25,0.34,0.06,-0.28,-0.31,-0.02,0.27,0.25,0.0,-0.19,-0.15,-0.01,0.06,0.03,0.01,0.04,0.07,0.03,-0.03,-0.1,-0.14,-0.09,0.09,0.27,0.25,-0.03,-0.34,-0.39,-0.08,0.33,0.46,0.2,-0.2,-0.39,-0.26,0.03,0.23,0
0.18271562604221897,0.18271559867728862,-0.49,0.51,0.1413,11.77,0.11888888888888889,29,93,0.24,0.24,0.08,-0.09,-0.13,-0.06,0.02,0.01,-0.04,-0.03,0.04,0.07,0.04,0.0,-0.0,-0.01,-0.04,-0.09,-0.1,-0.01,0.13,0.22,0.14,-0.08,-0.24,-0.23,-0.07,0.11,0.2,0.2,0.14,-0.01,-0.24,-0.37,-0.22,0.15,0.4,0.31,0.02,-0.18,-0.19,-0.15,-0.15,-0.09,0.13,0.35,0.36,0.08,-0.29,-0.49,-0.36,0.04,0.42,0.51,0.23,-0.2,-0.44,-0.34,-0.03,0.23,0.26,0.11,-0.01,-0.03,-0.04,-0.11,-0.18,-0.11,0.1,0.26,0.21,-0.01,-0.2,-0.23,-0.1,0.08,0.18,0.14,0.02,-0.07,-0.09,-0.07,-0.05,-0.0,0.07,0.12,0.08,-0.04,-0.15,-0.11,0.06,0.16,0.08,-0.1,-0.16,-0.04,0.12,0.14,0.01,-0.1,-0.09,0
0.1591194519849789,0.15910810790151458,-0.32,0.32,0.1329,11.440000000000001,0.11555555555555556,29,94,0.3,-0.03,-0.01,0.0,0.08,0.17,0.1,-0.13,-0.3,-0.21,0.07,0.29,0.28,0.08,-0.14,-0.27,-0.24,-0.06,0.18,0.3,0.21,-0.03,-0.24,-0.28,-0.13,0.1,0.25,0.23,0.07,-0.11,-0.22,-0.2,-0.07,0.11,0.22,0.19,0.02,-0.14,-0.19,-0.11,0.03,0.12,0.12,0.03,-0.09,-0.11,0.02,0.15,0.1,-0.1,-0.24,-0.14,0.11,0.27,0.19,-0.03,-0.21,-0.19,-0.03,0.09,0.1,0.04,-0.02,-0.03,0.02,0.06,0.03,-0.06,-0.13,-0.1,0.03,0.17,0.22,0.09,-0.14,-0.29,-0.23,0.03,0.28,0.32,0.11,-0.17,-0.32,-0.23,0.02,0.22,0.24,0.1,-0.08,-0.17,-0.13,-0.02,0.06,0.06,0.03,0.04,0.07,0.03,-0.1,-0.18,-0.09,0
0.19113084523435772,0.19108246910692775,-0.6,0.56,0.14270000000000002,12.89,0.1302020202020202,32,88,0.2,0.1,0.2,0.13,-0.02,-0.14,-0.16,-0.08,0.05,0.14,0.15,0.07,-0.05,-0.15,-0.16,-0.06,0.09,0.17,0.12,-0.01,-0.11,-0.1,-0.01,0.05,0.02,-0.02,-0.01,0.03,0.03,0.02,0.01,0.0,-0.03,-0.08,-0.09,-0.03,0.1,0.2,0.16,-0.04,-0.23,-0.24,-0.07,0.13,0.22,0.17,0.04,-0.11,-0.18,-0.15,-0.03,0.11,0.16,0.08,-0.05,-0.1,-0.02,0.06,0.01,-0.12,-0.15,0.03,0.25,0.25,-0.02,-0.29,-0.29,-0.05,0.19,0.25,0.15,-0.02,-0.15,-0.2,-0.13,0.0,0.13,0.2,0.16,0.01,-0.2,-0.3,-0.13,0.21,0.35,0.12,-0.25,-0.34,-0.04,0.32,0.35,-0.02,-0.42,-0.44,0.0,0.5,0.56,0.07,-0.49,-0.6,-0.17,0
0.1842688253612097,0.1841867259060761,-0.38,0.5,0.1511,12.490000000000002,0.12616161616161617,27,97,0.5,0.35,0.5,0.22,-0.16,-0.3,-0.17,0.0,0.06,0.04,0.04,0.11,0.13,0.03,-0.14,-0.23,-0.14,0.06,0.19,0.18,0.08,-0.03,-0.12,-0.17,-0.13,0.01,0.13,0.15,0.08,0.02,-0.03,-0.09,-0.13,-0.11,-0.01,0.1,0.15,0.13,0.05,-0.06,-0.16,-0.19,-0.1,0.07,0.2,0.21,0.12,-0.06,-0.22,-0.25,-0.1,0.11,0.2,0.14,0.04,0.02,0.0,-0.12,-0.29,-0.25,0.08,0.42,0.41,0.04,-0.34,-0.38,-0.14,0.1,0.16,0.15,0.16,0.11,-0.07,-0.28,-0.32,-0.1,0.22,0.39,0.24,-0.08,-0.29,-0.22,-0.04,0.05,0.04,0.08,0.19,0.17,-0.06,-0.3,-0.26,0.04,0.27,0.2,-0.06,-0.2,-0.08,0.16,0.22,0.01,-0.3,0
0.22906112721280317,0.22906093075860842,-0.57,0.54,0.17610000000000006,15.739999999999998,0.158989898989899,33,91,0.49,-0.36,-0.06,0.36,0.49,0.19,-0.26,-0.43,-0.25,0.01,0.15,0.2,0.25,0.2,-0.05,-0.36,-0.41,-0.1,0.27,0.35,0.13,-0.09,-0.08,0.02,-0.03,-0.24,-0.3,-0.02,0.41,0.54,0.19,-0.34,-0.57,-0.34,0.06,0.34,0.4,0.28,0.01,-0.31,-0.46,-0.3,0.07,0.39,0.45,0.2,-0.17,-0.43,-0.37,-0.03,0.32,0.38,0.12,-0.19,-0.29,-0.13,0.12,0.22,0.1,-0.11,-0.21,-0.08,0.15,0.23,0.08,-0.16,-0.27,-0.13,0.14,0.28,0.16,-0.08,-0.2,-0.13,-0.0,0.06,0.05,0.04,0.06,0.04,-0.04,-0.11,-0.1,-0.0,0.09,0.1,0.03,-0.04,-0.06,-0.03,-0.01,0.0,0.01,0.03,0.03,0.01,-0.02,-0.03,-0.01,0.01,-0.0,0
0.1863545008847385,0.18632702434161288,-0.54,0.45,0.1464,13.5,0.13636363636363635,33,93,0.31,-0.06,-0.05,0.07,0.18,0.13,-0.1,-0.3,-0.24,0.06,0.31,0.27,0.02,-0.16,-0.13,-0.05,-0.06,-0.09,-0.01,0.18,0.27,0.11,-0.16,-0.31,-0.2,0.05,0.24,0.22,0.06,-0.1,-0.13,-0.08,-0.06,-0.06,-0.01,0.14,0.25,0.15,-0.12,-0.33,-0.24,0.06,0.27,0.2,-0.01,-0.13,-0.08,-0.0,0.0,-0.03,-0.02,0.07,0.1,0.0,-0.1,-0.04,0.1,0.08,-0.14,-0.23,-0.01,0.29,0.28,-0.02,-0.26,-0.21,-0.02,0.02,0.0,0.12,0.31,0.24,-0.17,-0.52,-0.4,0.09,0.45,0.38,0.07,-0.15,-0.22,-0.21,-0.15,0.01,0.21,0.27,0.12,-0.09,-0.19,-0.13,-0.03,0.06,0.09,0.05,-0.06,-0.1,0.05,0.25,0.21,-0.17,-0.54,0
0.2699851847787208,0.2699839995258978,-0.82,0.77,0.19520000000000007,18.720000000000002,0.18909090909090912,33,97,0.82,-0.42,0.2,0.77,0.64,-0.14,-0.82,-0.72,0.04,0.65,0.56,0.02,-0.33,-0.25,-0.03,0.02,-0.06,-0.02,0.15,0.22,0.05,-0.16,-0.17,-0.01,0.09,0.01,-0.1,-0.05,0.14,0.24,0.12,-0.13,-0.34,-0.33,-0.05,0.37,0.56,0.28,-0.31,-0.68,-0.43,0.22,0.62,0.41,-0.12,-0.43,-0.28,0.06,0.21,0.12,-0.04,-0.07,-0.02,0.04,0.06,0.02,-0.04,-0.1,-0.1,-0.01,0.12,0.2,0.11,-0.08,-0.22,-0.2,-0.04,0.13,0.18,0.12,0.04,-0.01,-0.1,-0.22,-0.22,0.0,0.29,0.36,0.1,-0.21,-0.29,-0.13,0.02,0.04,0.05,0.16,0.23,0.1,-0.2,-0.37,-0.21,0.13,0.31,0.19,-0.04,-0.13,-0.05,0.03,-0.02,-0.12,-0.1,0
0.21589117629027826,0.21588837393430896,-0.61,0.56,0.16570000000000001,15.490000000000002,0.15646464646464647,33,97,0.21,0.07,0.21,0.17,-0.02,-0.19,-0.18,-0.03,0.1,0.1,-0.01,-0.05,0.05,0.15,0.05,-0.18,-0.29,-0.11,0.18,0.27,0.12,-0.02,-0.03,-0.05,-0.19,-0.3,-0.13,0.28,0.56,0.38,-0.17,-0.61,-0.56,-0.07,0.43,0.56,0.3,-0.1,-0.36,-0.38,-0.2,0.08,0.29,0.32,0.14,-0.11,-0.26,-0.19,-0.0,0.11,0.05,-0.04,0.04,0.2,0.17,-0.14,-0.42,-0.29,0.19,0.52,0.31,-0.19,-0.44,-0.21,0.17,0.25,0.03,-0.14,-0.06,0.1,0.09,-0.05,-0.1,-0.01,0.07,0.02,-0.07,-0.05,0.06,0.12,0.07,-0.05,-0.13,-0.12,-0.03,0.09,0.17,0.14,0.01,-0.16,-0.25,-0.13,0.11,0.26,0.18,-0.02,-0.14,-0.12,-0.05,-0.03,-0.0,0
0.1940257714840995,0.19402484377006982,-0.55,0.44,0.15519999999999998,14.14,0.14282828282828283,30,96,0.11,0.07,0.11,0.07,-0.02,-0.07,-0.05,-0.03,-0.04,-0.06,-0.02,0.09,0.2,0.18,-0.03,-0.29,-0.33,-0.08,0.25,0.37,0.18,-0.12,-0.27,-0.19,-0.03,0.07,0.12,0.16,0.13,-0.02,-0.2,-0.23,-0.05,0.15,0.16,0.05,-0.0,0.04,0.02,-0.13,-0.25,-0.13,0.17,0.34,0.18,-0.13,-0.25,-0.12,0.04,0.05,-0.04,-0.02,0.12,0.22,0.11,-0.15,-0.33,-0.25,0.05,0.31,0.29,0.04,-0.18,-0.17,-0.01,0.09,-0.02,-0.19,-0.15,0.16,0.44,0.33,-0.15,-0.55,-0.47,0.01,0.42,0.43,0.14,-0.11,-0.18,-0.17,-0.17,-0.1,0.09,0.25,0.22,0.01,-0.14,-0.09,-0.01,-0.07,-0.16,-0.06,0.2,0.34,0.15,-0.2,-0.35,-0.16,0.11,0
0.18482153554172198,0.18481826208467603,-0.41,0.38,0.15410000000000001,13.59,0.13727272727272727,32,94,0.33,0.17,0.06,-0.01,0.07,0.13,-0.03,-0.27,-0.3,-0.0,0.33,0.35,0.07,-0.22,-0.27,-0.11,0.03,0.06,0.06,0.14,0.21,0.09,-0.2,-0.38,-0.24,0.13,0.38,0.3,-0.01,-0.24,-0.24,-0.07,0.07,0.11,0.05,0.0,0.01,0.05,0.05,-0.04,-0.16,-0.19,-0.05,0.16,0.28,0.19,-0.04,-0.22,-0.25,-0.13,0.05,0.18,0.2,0.12,-0.01,-0.13,-0.19,-0.17,-0.04,0.15,0.24,0.15,-0.04,-0.15,-0.15,-0.1,-0.04,0.06,0.19,0.23,0.06,-0.2,-0.31,-0.14,0.15,0.27,0.11,-0.12,-0.14,0.06,0.17,0.01,-0.24,-0.27,-0.0,0.28,0.32,0.11,-0.14,-0.24,-0.21,-0.11,0.02,0.19,0.31,0.25,-0.04,-0.35,-0.41,-0.15,0.22,0
0.21589117629027826,0.21581591692922006,-0.67,0.73,0.1491,13.930000000000001,0.14070707070707072,34,87,0.39,0.39,0.25,-0.02,-0.19,-0.19,-0.12,-0.08,-0.03,0.14,0.32,0.28,-0.06,-0.41,-0.4,-0.03,0.32,0.31,0.05,-0.14,-0.1,0.01,0.0,-0.1,-0.1,0.05,0.18,0.13,-0.06,-0.16,-0.05,0.1,0.07,-0.1,-0.18,-0.01,0.24,0.26,-0.01,-0.3,-0.3,-0.01,0.26,0.26,0.04,-0.14,-0.15,-0.05,0.03,0.04,0.02,0.03,0.04,0.01,-0.04,-0.07,-0.04,0.02,0.05,0.04,0.0,-0.02,-0.01,-0.0,-0.01,-0.03,-0.03,0.02,0.08,0.06,-0.02,-0.06,-0.04,-0.03,-0.05,-0.02,0.09,0.17,0.07,-0.12,-0.18,-0.03,0.12,0.05,-0.13,-0.14,0.13,0.37,0.23,-0.26,-0.61,-0.38,0.27,0.73,0.51,-0.17,-0.67,-0.52,0.08,0.48,0.34,0
0.18968658360569418,0.18952200399953564,-0.43,0.4,0.15910000000000002,14.25,0.14393939393939395,29,97,0.4,-0.08,-0.27,-0.06,0.21,0.15,-0.17,-0.36,-0.16,0.23,0.4,0.21,-0.11,-0.27,-0.21,-0.08,0.03,0.14,0.22,0.18,-0.02,-0.23,-0.26,-0.09,0.14,0.22,0.12,-0.03,-0.1,-0.09,-0.04,-0.01,0.02,0.05,0.07,0.04,-0.04,-0.11,-0.06,0.07,0.14,0.05,-0.11,-0.18,-0.07,0.13,0.26,0.17,-0.11,-0.33,-0.28,0.03,0.31,0.33,0.11,-0.17,-0.3,-0.22,-0.02,0.17,0.23,0.15,0.01,-0.11,-0.17,-0.17,-0.07,0.11,0.24,0.2,0.02,-0.16,-0.23,-0.16,0.0,0.17,0.23,0.15,-0.05,-0.2,-0.2,-0.08,0.07,0.17,0.19,0.07,-0.15,-0.27,-0.12,0.19,0.3,0.06,-0.28,-0.33,0.01,0.38,0.39,0.02,-0.38,-0.43,-0.15,0
0.28218256501775585,0.2821824055464834,-0.63,0.59,0.2329,21.619999999999997,0.21838383838383835,32,98,0.58,0.19,0.34,0.29,0.14,-0.09,-0.35,-0.45,-0.23,0.23,0.58,0.51,0.02,-0.51,-0.63,-0.24,0.33,0.56,0.27,-0.19,-0.34,-0.1,0.16,0.11,-0.15,-0.26,-0.02,0.33,0.41,0.09,-0.35,-0.49,-0.21,0.22,0.42,0.27,-0.06,-0.27,-0.21,0.03,0.19,0.06,-0.2,-0.23,0.1,0.44,0.36,-0.14,-0.58,-0.52,0.01,0.54,0.59,0.13,-0.36,-0.41,-0.09,0.14,0.03,-0.14,-0.01,0.31,0.38,0.04,-0.38,-0.45,-0.15,0.2,0.31,0.19,0.02,-0.08,-0.12,-0.14,-0.14,-0.07,0.09,0.27,0.28,0.05,-0.27,-0.4,-0.21,0.12,0.34,0.31,0.1,-0.16,-0.31,-0.23,0.0,0.19,0.16,0.01,-0.04,0.07,0.13,-0.04,-0.29,-0.31,-0.01,0
0.21289433999052207,0.2128883275334747,-0.51,0.5,0.1718,15.55,0.15707070707070708,28,98,0.36,0.3,0.36,0.17,-0.08,-0.24,-0.28,-0.2,-0.01,0.22,0.35,0.27,-0.02,-0.32,-0.4,-0.17,0.16,0.33,0.22,-0.01,-0.11,-0.05,-0.02,-0.14,-0.23,-0.05,0.31,0.46,0.15,-0.33,-0.51,-0.22,0.23,0.4,0.17,-0.13,-0.19,-0.02,0.1,0.01,-0.13,-0.12,0.05,0.18,0.15,0.03,-0.09,-0.15,-0.13,-0.04,0.08,0.15,0.11,-0.0,-0.06,-0.04,-0.03,-0.09,-0.13,-0.04,0.17,0.28,0.14,-0.15,-0.32,-0.21,0.05,0.24,0.2,0.02,-0.15,-0.15,-0.01,0.13,0.12,-0.03,-0.19,-0.18,0.04,0.3,0.32,0.01,-0.38,-0.45,-0.11,0.35,0.5,0.23,-0.21,-0.44,-0.3,0.04,0.27,0.24,0.06,-0.07,-0.06,-0.04,-0.1,-0.15,-0.03,0
0.1940463862070098,0.194031543827286,-0.48,0.45,0.1586,13.710000000000003,0.13848484848484852,28,96,0.27,0.2,0.27,0.07,-0.21,-0.23,-0.02,0.14,0.05,-0.1,-0.08,0.09,0.21,0.14,-0.08,-0.26,-0.27,-0.07,0.21,0.35,0.25,-0.04,-0.31,-0.37,-0.15,0.17,0.34,0.23,-0.02,-0.16,-0.15,-0.08,-0.06,-0.07,0.02,0.21,0.33,0.16,-0.22,-0.48,-0.36,0.08,0.45,0.42,0.08,-0.26,-0.33,-0.15,0.06,0.12,0.06,0.03,0.1,0.15,0.01,-0.22,-0.32,-0.16,0.16,0.37,0.31,0.02,-0.28,-0.35,-0.16,0.12,0.27,0.21,0.01,-0.15,-0.15,-0.01,0.08,0.05,-0.06,-0.09,-0.01,0.11,0.14,0.05,-0.06,-0.12,-0.1,-0.05,-0.01,0.07,0.16,0.16,0.03,-0.16,-0.24,-0.12,0.06,0.14,0.11,0.09,0.09,-0.0,-0.2,-0.33,-0.17,0
0.12579745625409125,0.12575416494096725,-0.3,0.29,0.1007,9.250000000000002,0.09343434343434345,34,92,0.19,0.19,0.17,0.05,0.01,0.02,-0.04,-0.14,-0.13,0.02,0.14,0.11,0.0,-0.03,0.0,-0.01,-0.1,-0.15,-0.03,0.17,0.24,0.1,-0.12,-0.22,-0.16,-0.02,0.1,0.18,0.16,0.01,-0.17,-0.21,-0.05,0.14,0.18,0.05,-0.12,-0.18,-0.03,0.18,0.22,-0.0,-0.26,-0.25,0.02,0.23,0.2,0.03,-0.08,-0.09,-0.09,-0.08,-0.03,0.09,0.16,0.11,-0.02,-0.11,-0.13,-0.09,-0.02,0.09,0.18,0.14,-0.02,-0.18,-0.2,-0.05,0.11,0.16,0.08,-0.03,-0.08,-0.06,-0.02,-0.0,0.02,0.03,0.04,0.02,-0.02,-0.04,-0.04,0.0,0.04,0.01,-0.05,-0.07,0.04,0.18,0.16,-0.09,-0.3,-0.2,0.12,0.29,0.15,-0.09,-0.15,-0.02,0.06,0
0.1974259354796122,0.19742469450400577,-0.42,0.43,0.1659,15.06,0.15212121212121213,31,96,0.36,-0.02,-0.15,-0.12,0.09,0.29,0.25,-0.04,-0.33,-0.36,-0.1,0.19,0.32,0.26,0.08,-0.15,-0.33,-0.32,-0.07,0.26,0.37,0.18,-0.1,-0.22,-0.14,-0.04,-0.01,0.0,0.06,0.13,0.14,0.05,-0.09,-0.19,-0.18,-0.04,0.15,0.23,0.15,-0.06,-0.21,-0.16,0.04,0.15,0.04,-0.13,-0.09,0.16,0.29,0.07,-0.31,-0.42,-0.1,0.33,0.43,0.14,-0.22,-0.32,-0.14,0.1,0.19,0.09,-0.06,-0.1,-0.01,0.12,0.12,-0.04,-0.2,-0.18,0.01,0.18,0.22,0.13,-0.03,-0.21,-0.3,-0.17,0.13,0.37,0.3,-0.01,-0.29,-0.3,-0.07,0.15,0.18,0.03,-0.08,-0.01,0.14,0.14,-0.09,-0.3,-0.25,0.05,0.31,0.33,0.12,-0.15,-0.32,0
0.24903413420653805,0.24903381296522767,-0.53,0.5,0.20640000000000003,18.32,0.18505050505050505,30,94,0.32,-0.28,-0.06,0.22,0.32,0.19,-0.05,-0.21,-0.22,-0.09,0.05,0.11,0.11,0.09,0.06,-0.01,-0.14,-0.2,-0.11,0.07,0.18,0.15,0.05,-0.03,-0.08,-0.09,-0.08,-0.08,-0.06,0.05,0.22,0.29,0.12,-0.2,-0.41,-0.31,0.01,0.31,0.4,0.26,-0.02,-0.29,-0.4,-0.27,0.01,0.26,0.36,0.29,0.1,-0.17,-0.4,-0.43,-0.15,0.27,0.5,0.37,-0.02,-0.33,-0.32,-0.1,0.05,0.03,0.0,0.16,0.33,0.2,-0.22,-0.53,-0.37,0.14,0.5,0.39,-0.01,-0.3,-0.24,-0.02,0.05,-0.04,-0.04,0.15,0.32,0.15,-0.26,-0.48,-0.22,0.28,0.49,0.19,-0.27,-0.39,-0.07,0.29,0.27,-0.08,-0.35,-0.24,0.17,0.44,0.28,-0.16,-0.44,0
0.20080089641234172,0.20079887947894529,-0.42,0.43,0.16649999999999995,15.58,0.1573737373737374,31,96,0.34,-0.31,0.07,0.34,0.28,0.03,-0.17,-0.17,-0.07,0.01,0.04,0.06,0.08,0.06,-0.03,-0.11,-0.07,0.04,0.07,-0.02,-0.07,0.04,0.17,0.1,-0.15,-0.3,-0.15,0.15,0.33,0.24,-0.04,-0.27,-0.28,-0.09,0.13,0.24,0.18,-0.01,-0.17,-0.18,-0.05,0.11,0.17,0.07,-0.12,-0.22,-0.1,0.18,0.33,0.16,-0.21,-0.42,-0.24,0.16,0.39,0.26,-0.05,-0.21,-0.14,-0.03,-0.04,-0.08,-0.02,0.17,0.31,0.21,-0.12,-0.41,-0.39,-0.06,0.31,0.43,0.24,-0.1,-0.31,-0.27,-0.07,0.1,0.15,0.15,0.12,-0.0,-0.19,-0.23,-0.03,0.22,0.21,-0.07,-0.27,-0.1,0.25,0.31,-0.02,-0.37,-0.33,0.05,0.36,0.29,-0.02,-0.2,-0.13,0
0.16331258371601376,0.16331230817057235,-0.3,0.35,0.1373,12.969999999999999,0.131010101010101,32,96,0.26,-0.02,-0.02,-0.07,-0.0,0.17,0.23,0.07,-0.18,-0.26,-0.11,0.1,0.16,0.07,-0.01,0.03,0.06,-0.06,-0.21,-0.18,0.05,0.27,0.23,-0.0,-0.17,-0.14,-0.03,-0.01,-0.03,0.01,0.13,0.16,0.04,-0.11,-0.14,-0.09,-0.04,0.02,0.12,0.2,0.14,-0.08,-0.29,-0.27,-0.02,0.24,0.31,0.14,-0.11,-0.25,-0.19,-0.02,0.09,0.11,0.1,0.09,0.04,-0.1,-0.22,-0.17,0.04,0.24,0.2,-0.03,-0.2,-0.1,0.12,0.16,-0.06,-0.26,-0.18,0.13,0.35,0.25,-0.06,-0.3,-0.3,-0.08,0.16,0.23,0.15,0.03,-0.05,-0.14,-0.2,-0.11,0.14,0.3,0.15,-0.17,-0.29,-0.06,0.22,0.18,-0.1,-0.25,-0.07,0.21,0.24,-0.01,-0.23,0
0.1970406049523803,0.19702941404775076,-0.49,0.42,0.1619,14.529999999999998,0.14676767676767674,31,97,0.26,-0.19,0.03,0.15,0.07,-0.04,-0.0,0.1,0.07,-0.13,-0.26,-0.13,0.16,0.32,0.2,-0.05,-0.22,-0.22,-0.1,0.04,0.16,0.19,0.11,-0.04,-0.16,-0.17,-0.06,0.07,0.13,0.09,0.01,-0.05,-0.03,-0.0,-0.04,-0.11,-0.06,0.12,0.21,0.09,-0.09,-0.12,-0.03,-0.03,-0.13,-0.1,0.17,0.39,0.24,-0.21,-0.49,-0.3,0.13,0.35,0.23,0.03,-0.04,-0.06,-0.16,-0.25,-0.14,0.17,0.38,0.26,-0.08,-0.33,-0.26,0.02,0.19,0.1,-0.07,-0.06,0.12,0.21,0.04,-0.24,-0.35,-0.17,0.17,0.42,0.36,0.01,-0.37,-0.46,-0.21,0.15,0.37,0.34,0.11,-0.14,-0.29,-0.27,-0.11,0.11,0.26,0.25,0.09,-0.12,-0.22,-0.18,-0.06,0
0.16208331191088118,0.16208081317663728,-0.39,0.39,0.1337,12.459999999999999,0.12585858585858584,33,91,0.39,0.06,0.16,0.21,0.14,-0.08,-0.31,-0.29,0.05,0.39,0.32,-0.1,-0.39,-0.23,0.16,0.32,0.09,-0.2,-0.21,0.02,0.17,0.07,-0.08,-0.06,0.07,0.09,-0.05,-0.19,-0.14,0.09,0.28,0.23,-0.07,-0.3,-0.25,0.0,0.17,0.15,0.07,0.04,0.02,-0.06,-0.18,-0.19,-0.03,0.19,0.26,0.14,-0.06,-0.21,-0.21,-0.07,0.1,0.17,0.13,0.03,-0.05,-0.12,-0.12,-0.03,0.09,0.13,0.04,-0.08,-0.08,0.02,0.07,-0.01,-0.12,-0.08,0.09,0.21,0.14,-0.09,-0.25,-0.22,-0.01,0.22,0.29,0.15,-0.12,-0.29,-0.23,0.01,0.2,0.2,0.05,-0.08,-0.09,-0.01,0.05,-0.0,-0.1,-0.1,0.03,0.17,0.17,0.01,-0.16,-0.18,-0.06,0
0.18990523952750749,0.18990260661718156,-0.42,0.42,0.14780000000000001,14.42,0.14565656565656565,35,93,0.13,0.08,0.13,0.08,0.0,-0.04,-0.05,-0.04,-0.02,0.01,0.04,0.03,-0.01,-0.01,0.02,0.02,-0.01,-0.04,-0.02,-0.02,-0.03,0.0,0.1,0.14,0.03,-0.18,-0.25,-0.06,0.22,0.28,0.05,-0.2,-0.21,0.01,0.15,0.07,-0.09,-0.11,0.04,0.15,0.1,-0.07,-0.17,-0.14,-0.01,0.14,0.24,0.17,-0.07,-0.31,-0.31,-0.04,0.25,0.33,0.16,-0.07,-0.19,-0.21,-0.16,-0.02,0.19,0.31,0.19,-0.14,-0.36,-0.23,0.13,0.34,0.17,-0.2,-0.33,-0.05,0.33,0.36,-0.02,-0.42,-0.4,0.02,0.39,0.35,0.0,-0.25,-0.19,0.02,0.09,-0.02,-0.11,-0.03,0.17,0.26,0.11,-0.2,-0.39,-0.25,0.13,0.42,0.32,-0.06,-0.32,-0.21,0.1,0
0.18799202110728,0.18798752618192516,-0.61,0.52,0.13690000000000002,13.48,0.13616161616161618,35,96,0.61,0.19,-0.06,-0.29,-0.12,0.34,0.52,0.13,-0.46,-0.61,-0.18,0.37,0.52,0.2,-0.18,-0.3,-0.15,0.01,0.06,0.04,0.06,0.09,0.06,-0.05,-0.13,-0.1,0.01,0.09,0.08,0.03,-0.01,-0.03,-0.05,-0.07,-0.02,0.09,0.14,0.04,-0.13,-0.18,-0.04,0.13,0.17,0.05,-0.12,-0.16,-0.06,0.09,0.16,0.11,-0.04,-0.18,-0.2,-0.02,0.22,0.27,0.03,-0.24,-0.24,-0.0,0.18,0.12,-0.05,-0.1,0.02,0.1,0.03,-0.1,-0.12,-0.03,0.07,0.12,0.09,0.0,-0.11,-0.14,-0.04,0.09,0.1,0.02,-0.02,0.01,0.01,-0.07,-0.14,-0.04,0.15,0.18,0.02,-0.14,-0.09,0.07,0.1,-0.07,-0.25,-0.15,0.21,0.48,0.31,-0.22,-0.61,0
0.21715892797672398,0.21715883587825754,-0.46,0.49,0.17699999999999996,15.390000000000002,0.15545454545454548,32,98,0.49,-0.46,0.07,0.49,0.48,0.15,-0.18,-0.31,-0.26,-0.13,0.01,0.15,0.29,0.31,0.11,-0.23,-0.46,-0.36,0.02,0.38,0.44,0.19,-0.15,-0.32,-0.24,-0.05,0.1,0.14,0.1,0.05,0.03,0.01,-0.06,-0.14,-0.15,-0.07,0.07,0.19,0.23,0.14,-0.09,-0.31,-0.33,-0.08,0.24,0.35,0.21,-0.03,-0.18,-0.22,-0.2,-0.08,0.14,0.33,0.28,-0.04,-0.33,-0.29,0.0,0.22,0.17,-0.04,-0.16,-0.05,0.15,0.21,0.02,-0.25,-0.32,-0.1,0.25,0.41,0.23,-0.15,-0.4,-0.3,0.03,0.28,0.25,0.03,-0.11,-0.07,0.01,-0.02,-0.12,-0.1,0.06,0.21,0.17,-0.03,-0.16,-0.12,-0.01,0.02,-0.03,-0.0,0.13,0.22,0.09,-0.2,-0.35,0
0.21412379596859382,0.21412097048164153,-0.64,0.55,0.1693,15.760000000000003,0.15919191919191922,33,91,0.31,-0.18,0.15,0.31,0.18,-0.04,-0.13,-0.08,-0.04,-0.08,-0.07,0.06,0.17,0.14,-0.0,-0.09,-0.09,-0.08,-0.09,-0.03,0.14,0.26,0.13,-0.15,-0.32,-0.18,0.14,0.31,0.15,-0.16,-0.27,-0.04,0.24,0.21,-0.09,-0.3,-0.15,0.16,0.28,0.1,-0.16,-0.21,-0.04,0.12,0.09,-0.06,-0.12,0.02,0.21,0.2,-0.07,-0.34,-0.3,0.04,0.35,0.34,0.05,-0.24,-0.28,-0.1,0.09,0.14,0.07,-0.01,-0.01,0.05,0.04,-0.08,-0.17,-0.11,0.07,0.21,0.16,-0.02,-0.16,-0.15,-0.03,0.08,0.06,-0.02,-0.05,0.07,0.19,0.12,-0.17,-0.41,-0.31,0.12,0.53,0.53,0.09,-0.46,-0.64,-0.32,0.22,0.55,0.43,0.04,-0.28,-0.34,-0.2,0
0.2409605776885505,0.2409044623912143,-0.53,0.63,0.19680000000000003,16.909999999999997,0.17080808080808077,28,97,0.22,-0.01,0.13,0.19,0.18,0.11,-0.03,-0.16,-0.22,-0.16,-0.04,0.1,0.23,0.3,0.19,-0.11,-0.43,-0.49,-0.15,0.38,0.63,0.35,-0.22,-0.53,-0.33,0.1,0.28,0.1,-0.11,-0.02,0.23,0.26,-0.09,-0.46,-0.41,0.04,0.44,0.43,0.1,-0.21,-0.27,-0.17,-0.07,0.01,0.11,0.19,0.15,0.01,-0.09,-0.11,-0.11,-0.14,-0.1,0.08,0.32,0.35,0.07,-0.33,-0.47,-0.22,0.18,0.38,0.28,0.06,-0.12,-0.22,-0.23,-0.12,0.08,0.23,0.21,0.06,-0.07,-0.12,-0.12,-0.1,-0.05,0.03,0.13,0.19,0.18,0.05,-0.18,-0.37,-0.32,0.01,0.41,0.51,0.18,-0.3,-0.49,-0.23,0.16,0.3,0.15,-0.08,-0.15,-0.03,0.12,0.14,-0.02,0
0.16775577486334114,0.1677538673175674,-0.38,0.36,0.1402,12.11,0.12232323232323232,28,95,0.38,-0.21,-0.24,-0.06,0.22,0.36,0.2,-0.15,-0.38,-0.29,0.03,0.26,0.24,0.07,-0.04,-0.07,-0.1,-0.15,-0.11,0.05,0.22,0.22,0.03,-0.17,-0.2,-0.07,0.04,0.04,0.02,0.09,0.18,0.1,-0.14,-0.32,-0.24,0.03,0.27,0.31,0.18,-0.04,-0.23,-0.32,-0.21,0.05,0.28,0.3,0.13,-0.07,-0.19,-0.21,-0.15,-0.01,0.15,0.25,0.18,-0.02,-0.2,-0.24,-0.13,0.08,0.24,0.19,-0.02,-0.18,-0.14,0.03,0.11,0.02,-0.08,-0.05,0.07,0.12,0.03,-0.1,-0.12,-0.03,0.05,0.05,0.03,0.03,0.04,-0.0,-0.08,-0.13,-0.07,0.08,0.19,0.14,-0.03,-0.18,-0.21,-0.07,0.14,0.24,0.13,-0.12,-0.27,-0.13,0.17,0.29,0.08,0
0.17610224302944016,0.1759630643061208,-0.45,0.41,0.1414,12.29,0.12414141414141414,31,94,0.28,-0.22,-0.28,-0.07,0.18,0.24,0.13,-0.05,-0.19,-0.22,-0.09,0.14,0.27,0.16,-0.1,-0.26,-0.16,0.07,0.19,0.12,-0.04,-0.1,-0.05,0.02,0.03,-0.01,-0.01,0.02,0.04,-0.0,-0.07,-0.07,0.03,0.13,0.08,-0.07,-0.17,-0.07,0.11,0.16,0.04,-0.11,-0.13,-0.03,0.07,0.09,0.06,0.01,-0.06,-0.11,-0.09,0.04,0.13,0.08,-0.04,-0.08,-0.01,0.07,0.04,-0.09,-0.17,-0.06,0.17,0.29,0.11,-0.19,-0.32,-0.2,0.02,0.2,0.29,0.25,0.03,-0.3,-0.45,-0.23,0.18,0.41,0.3,0.02,-0.17,-0.18,-0.12,-0.09,-0.08,0.02,0.21,0.33,0.21,-0.12,-0.4,-0.39,-0.1,0.22,0.37,0.28,0.06,-0.17,-0.3,-0.26,-0.07,0
0.20853057329801786,0.20850119903731967,-0.45,0.53,0.16290000000000002,15.36,0.15515151515151515,33,95,0.28,0.16,0.28,0.2,0.01,-0.16,-0.19,-0.11,0.01,0.1,0.12,0.05,-0.03,-0.05,0.0,0.04,-0.01,-0.1,-0.11,0.01,0.14,0.15,0.03,-0.07,-0.06,-0.03,-0.07,-0.14,-0.07,0.17,0.33,0.2,-0.14,-0.4,-0.32,0.05,0.36,0.32,-0.01,-0.26,-0.17,0.08,0.14,-0.09,-0.25,-0.05,0.33,0.4,0.02,-0.41,-0.42,-0.05,0.28,0.29,0.09,-0.05,-0.07,-0.06,-0.11,-0.14,-0.05,0.15,0.29,0.18,-0.1,-0.31,-0.24,0.03,0.22,0.15,-0.03,-0.07,0.08,0.18,-0.02,-0.35,-0.4,-0.0,0.47,0.53,0.12,-0.33,-0.45,-0.25,0.02,0.24,0.33,0.25,-0.02,-0.31,-0.36,-0.12,0.2,0.31,0.16,-0.08,-0.17,-0.11,-0.0,0.03,0.02,0
0.19913814300630606,0.19907536261426223,-0.54,0.5,0.15100000000000002,13.43,0.13565656565656564,31,95,0.06,0.02,0.05,0.04,-0.01,-0.06,-0.06,-0.01,0.05,0.04,-0.04,-0.08,-0.01,0.13,0.18,0.05,-0.19,-0.31,-0.18,0.14,0.38,0.34,0.0,-0.36,-0.43,-0.12,0.29,0.41,0.15,-0.18,-0.3,-0.16,0.06,0.17,0.16,0.05,-0.09,-0.17,-0.11,0.09,0.23,0.11,-0.19,-0.32,-0.1,0.27,0.41,0.16,-0.23,-0.43,-0.29,0.05,0.34,0.37,0.14,-0.16,-0.32,-0.25,-0.02,0.18,0.22,0.12,-0.02,-0.11,-0.12,-0.07,-0.01,0.05,0.08,0.07,0.02,-0.04,-0.07,-0.05,-0.01,0.04,0.05,0.01,-0.04,-0.02,0.06,0.08,-0.0,-0.13,-0.15,-0.02,0.14,0.16,0.06,-0.02,-0.01,-0.03,-0.17,-0.26,-0.1,0.27,0.5,0.31,-0.18,-0.54,-0.45,0
0.19394844675841053,0.1939310186638538,-0.36,0.44,0.1584,14.32,0.14464646464646466,32,96,0.44,-0.01,0.39,0.44,0.17,-0.16,-0.31,-0.21,0.02,0.17,0.14,-0.02,-0.13,-0.09,0.09,0.23,0.16,-0.12,-0.36,-0.3,0.05,0.38,0.39,0.11,-0.2,-0.34,-0.26,-0.06,0.16,0.29,0.25,0.05,-0.17,-0.27,-0.2,-0.02,0.17,0.24,0.13,-0.04,-0.12,-0.09,-0.07,-0.09,-0.06,0.1,0.25,0.21,-0.04,-0.28,-0.27,-0.04,0.16,0.17,0.08,0.05,0.05,-0.07,-0.26,-0.27,0.01,0.35,0.39,0.06,-0.3,-0.34,-0.07,0.16,0.13,-0.01,-0.0,0.13,0.12,-0.12,-0.31,-0.19,0.16,0.36,0.2,-0.13,-0.28,-0.15,0.07,0.15,0.07,-0.02,-0.05,-0.04,0.01,0.05,0.06,-0.01,-0.12,-0.14,0.0,0.21,0.24,0.02,-0.25,-0.28,-0.05,0
0.15786069808536893,0.15786057139133888,-0.35,0.36,0.1308,11.489999999999998,0.11606060606060604,32,95,0.25,0.21,0.25,0.07,-0.15,-0.2,-0.06,0.12,0.15,0.02,-0.12,-0.13,-0.02,0.1,0.15,0.08,-0.08,-0.19,-0.14,0.04,0.17,0.12,-0.01,-0.04,0.01,-0.03,-0.16,-0.18,0.02,0.28,0.3,0.05,-0.24,-0.32,-0.16,0.07,0.23,0.23,0.1,-0.08,-0.21,-0.19,-0.05,0.11,0.17,0.11,-0.0,-0.09,-0.1,-0.05,-0.0,0.04,0.06,0.05,-0.0,-0.07,-0.05,0.04,0.1,0.03,-0.1,-0.16,-0.05,0.14,0.23,0.12,-0.12,-0.26,-0.18,0.03,0.18,0.18,0.1,0.01,-0.09,-0.2,-0.22,-0.06,0.2,0.34,0.2,-0.12,-0.3,-0.2,0.01,0.1,0.05,0.04,0.13,0.18,0.03,-0.24,-0.35,-0.16,0.18,0.36,0.24,-0.03,-0.23,-0.24,-0.12,0
0.2158031510427964,0.21578366481270078,-0.51,0.47,0.17250000000000004,14.81,0.1495959595959596,29,93,0.27,0.03,0.14,0.2,0.16,0.04,-0.14,-0.27,-0.26,-0.07,0.2,0.38,0.34,0.05,-0.32,-0.51,-0.33,0.11,0.44,0.42,0.12,-0.19,-0.32,-0.24,-0.04,0.14,0.19,0.1,-0.02,-0.05,0.0,0.03,-0.06,-0.15,-0.11,0.05,0.18,0.18,0.06,-0.08,-0.17,-0.18,-0.09,0.07,0.19,0.19,0.07,-0.09,-0.18,-0.13,-0.02,0.07,0.09,0.05,-0.01,-0.02,0.04,0.1,-0.01,-0.23,-0.3,-0.03,0.36,0.47,0.13,-0.32,-0.44,-0.2,0.09,0.2,0.2,0.19,0.12,-0.11,-0.35,-0.34,-0.02,0.31,0.33,0.09,-0.1,-0.09,-0.04,-0.11,-0.22,-0.13,0.2,0.45,0.31,-0.14,-0.48,-0.39,0.02,0.36,0.34,0.05,-0.19,-0.18,-0.01,0.1,0.02,0
0.16525434941326053,0.16525359300178621,-0.4,0.4,0.1371,13.01,0.1314141414141414,32,97,0.32,-0.13,-0.12,0.08,0.27,0.18,-0.12,-0.32,-0.18,0.13,0.26,0.11,-0.13,-0.19,-0.01,0.18,0.15,-0.07,-0.23,-0.15,0.08,0.22,0.15,-0.04,-0.14,-0.11,-0.03,0.01,0.02,0.07,0.12,0.09,-0.06,-0.2,-0.19,-0.01,0.19,0.22,0.1,-0.07,-0.17,-0.18,-0.08,0.08,0.19,0.15,0.01,-0.09,-0.1,-0.07,-0.04,-0.03,0.0,0.09,0.2,0.18,-0.04,-0.32,-0.36,-0.05,0.34,0.4,0.08,-0.27,-0.29,-0.02,0.19,0.09,-0.13,-0.14,0.11,0.3,0.15,-0.22,-0.4,-0.19,0.2,0.37,0.19,-0.1,-0.23,-0.15,0.0,0.07,0.06,0.04,0.05,0.03,-0.06,-0.13,-0.07,0.09,0.17,0.07,-0.11,-0.17,-0.06,0.09,0.16,0.1,-0.06,0
0.20341828826337122,0.20339761552191313,-0.49,0.54,0.1611,14.489999999999998,0.14636363636363633,34,96,0.28,-0.18,-0.15,0.05,0.23,0.21,-0.04,-0.28,-0.25,0.02,0.25,0.23,0.03,-0.13,-0.15,-0.07,0.03,0.06,0.02,-0.03,-0.0,0.08,0.11,-0.01,-0.16,-0.18,-0.04,0.14,0.21,0.11,-0.06,-0.15,-0.11,-0.02,0.0,-0.02,0.03,0.17,0.23,0.06,-0.25,-0.39,-0.19,0.18,0.35,0.22,-0.01,-0.1,-0.08,-0.11,-0.19,-0.15,0.07,0.3,0.33,0.12,-0.18,-0.37,-0.31,-0.03,0.25,0.33,0.19,-0.04,-0.2,-0.21,-0.08,0.05,0.06,-0.0,0.01,0.15,0.24,0.09,-0.26,-0.48,-0.3,0.18,0.54,0.47,0.03,-0.4,-0.49,-0.21,0.18,0.32,0.18,-0.01,-0.03,0.03,-0.04,-0.2,-0.24,-0.03,0.27,0.34,0.11,-0.18,-0.27,-0.14,0.05,0
0.201809315939577,0.20180215558809075,-0.51,0.48,0.1607,14.629999999999999,0.14777777777777776,30,93,0.27,0.11,0.06,0.01,0.05,0.1,0.04,-0.14,-0.27,-0.17,0.14,0.35,0.25,-0.05,-0.26,-0.23,-0.07,0.06,0.1,0.11,0.12,0.09,-0.06,-0.2,-0.18,-0.01,0.15,0.14,-0.02,-0.12,-0.01,0.18,0.17,-0.1,-0.38,-0.3,0.12,0.48,0.43,-0.01,-0.45,-0.51,-0.16,0.28,0.46,0.3,-0.02,-0.27,-0.36,-0.26,0.02,0.32,0.4,0.15,-0.2,-0.32,-0.16,0.06,0.12,0.06,0.02,0.06,0.07,-0.0,-0.12,-0.17,-0.1,0.06,0.23,0.25,0.04,-0.27,-0.35,-0.09,0.27,0.34,0.07,-0.24,-0.26,-0.02,0.19,0.19,0.04,-0.12,-0.19,-0.13,0.04,0.2,0.21,0.05,-0.16,-0.21,-0.08,0.08,0.1,0.03,-0.01,0.05,0.09,0.01,-0.14,0
0.1859919353090343,0.18597233665252474,-0.48,0.49,0.1469,14.040000000000001,0.14181818181818182,33,97,0.2,-0.19,-0.07,0.11,0.19,0.13,0.02,-0.06,-0.15,-0.2,-0.1,0.16,0.34,0.2,-0.18,-0.37,-0.16,0.19,0.26,0.01,-0.21,-0.12,0.16,0.25,0.03,-0.25,-0.27,-0.02,0.19,0.19,0.08,0.03,-0.01,-0.13,-0.25,-0.18,0.1,0.34,0.29,-0.02,-0.28,-0.24,-0.01,0.11,0.03,-0.06,0.04,0.23,0.21,-0.1,-0.41,-0.37,0.03,0.45,0.49,0.1,-0.36,-0.48,-0.21,0.18,0.35,0.25,0.01,-0.17,-0.22,-0.13,0.01,0.14,0.16,0.06,-0.07,-0.1,-0.04,0.03,0.04,0.0,-0.03,-0.04,0.01,0.08,0.1,-0.01,-0.15,-0.14,0.03,0.18,0.13,-0.05,-0.12,-0.04,0.06,0.04,-0.07,-0.11,-0.01,0.14,0.19,0.06,-0.15,-0.24,-0.13,0
0.20552858681944952,0.20550367393309543,-0.46,0.5,0.17539999999999994,15.959999999999999,0.1612121212121212,31,96,0.22,0.09,0.22,0.16,-0.01,-0.14,-0.14,-0.01,0.09,0.05,-0.1,-0.13,0.09,0.31,0.22,-0.18,-0.46,-0.3,0.14,0.41,0.32,0.02,-0.2,-0.24,-0.18,-0.07,0.07,0.21,0.25,0.13,-0.08,-0.26,-0.3,-0.16,0.13,0.35,0.31,0.05,-0.23,-0.32,-0.2,0.03,0.24,0.28,0.09,-0.17,-0.24,-0.07,0.14,0.12,-0.07,-0.14,0.03,0.22,0.15,-0.13,-0.28,-0.13,0.16,0.23,0.03,-0.16,-0.06,0.17,0.18,-0.12,-0.4,-0.26,0.2,0.5,0.34,-0.1,-0.4,-0.34,-0.09,0.14,0.25,0.23,0.11,-0.08,-0.24,-0.25,-0.07,0.15,0.21,0.1,-0.02,-0.04,-0.01,-0.05,-0.14,-0.14,0.0,0.22,0.29,0.09,-0.22,-0.33,-0.15,0.14,0.27,0
0.16501515081955354,0.1649666632989829,-0.36,0.39,0.13660000000000003,13.040000000000001,0.13171717171717173,33,93,0.3,0.15,-0.1,-0.19,-0.04,0.17,0.14,-0.14,-0.3,-0.11,0.24,0.35,0.14,-0.17,-0.29,-0.18,0.02,0.15,0.14,0.06,0.01,0.02,-0.01,-0.13,-0.24,-0.14,0.16,0.39,0.26,-0.14,-0.36,-0.2,0.09,0.14,0.01,-0.03,0.1,0.18,0.05,-0.2,-0.26,-0.08,0.13,0.14,0.06,0.06,0.1,0.01,-0.2,-0.3,-0.12,0.21,0.35,0.18,-0.12,-0.26,-0.17,0.02,0.11,0.09,0.04,0.02,0.0,-0.03,-0.07,-0.06,0.0,0.07,0.08,0.03,-0.05,-0.09,-0.02,0.09,0.09,-0.05,-0.17,-0.08,0.15,0.25,0.08,-0.18,-0.28,-0.1,0.15,0.22,0.06,-0.1,-0.06,0.09,0.09,-0.1,-0.24,-0.14,0.13,0.32,0.24,-0.01,-0.22,-0.29,-0.21,0
0.1714788616710526,0.1714683352692269,-0.46,0.42,0.13770000000000002,12.060000000000002,0.12181818181818184,29,96,0.22,0.07,-0.11,-0.22,-0.14,0.05,0.15,0.09,0.01,0.02,0.05,-0.01,-0.15,-0.2,-0.07,0.14,0.26,0.19,-0.02,-0.22,-0.26,-0.12,0.08,0.2,0.2,0.09,-0.07,-0.17,-0.14,-0.02,0.05,0.03,0.01,0.08,0.16,0.09,-0.12,-0.29,-0.25,0.01,0.3,0.37,0.16,-0.18,-0.39,-0.31,0.01,0.3,0.34,0.14,-0.12,-0.22,-0.17,-0.09,-0.04,0.08,0.25,0.31,0.09,-0.28,-0.46,-0.23,0.19,0.42,0.28,-0.04,-0.25,-0.22,-0.03,0.11,0.09,-0.01,-0.04,0.01,0.07,0.06,0.0,-0.07,-0.11,-0.09,0.0,0.11,0.16,0.08,-0.06,-0.14,-0.12,-0.04,0.04,0.1,0.14,0.1,-0.04,-0.19,-0.19,-0.02,0.17,0.21,0.07,-0.1,-0.15,0
0.1672602762164406,0.16725059043244064,-0.37,0.34,0.1388,12.410000000000002,0.12535353535353538,36,96,0.37,-0.08,-0.13,-0.18,-0.15,0.02,0.25,0.34,0.15,-0.18,-0.37,-0.26,0.04,0.25,0.22,0.03,-0.08,-0.04,0.01,-0.05,-0.16,-0.14,0.06,0.27,0.26,0.02,-0.23,-0.27,-0.11,0.1,0.19,0.11,-0.0,-0.03,0.02,0.0,-0.11,-0.19,-0.09,0.12,0.28,0.23,-0.0,-0.25,-0.31,-0.14,0.13,0.28,0.18,-0.04,-0.15,-0.09,0.02,0.03,-0.05,-0.09,-0.02,0.12,0.21,0.15,-0.07,-0.29,-0.3,-0.05,0.26,0.34,0.13,-0.15,-0.23,-0.09,0.06,0.04,-0.06,-0.04,0.11,0.21,0.11,-0.14,-0.3,-0.22,0.04,0.25,0.25,0.09,-0.08,-0.17,-0.18,-0.12,0.0,0.16,0.23,0.14,-0.06,-0.2,-0.18,-0.04,0.1,0.14,0.09,0.01,-0.07,0
0.21471376294965352,0.2147114342553745,-0.44,0.49,0.1794,17.039999999999996,0.17212121212121206,32,96,0.28,-0.11,-0.06,0.05,0.13,0.06,-0.11,-0.18,-0.04,0.21,0.28,0.04,-0.28,-0.37,-0.11,0.25,0.39,0.19,-0.13,-0.29,-0.22,-0.04,0.1,0.17,0.18,0.08,-0.12,-0.24,-0.12,0.11,0.16,-0.01,-0.16,-0.05,0.21,0.28,0.01,-0.35,-0.42,-0.11,0.31,0.49,0.3,-0.12,-0.44,-0.43,-0.1,0.28,0.39,0.19,-0.07,-0.17,-0.12,-0.07,-0.1,-0.09,0.06,0.28,0.32,0.07,-0.29,-0.44,-0.21,0.21,0.42,0.24,-0.13,-0.28,-0.11,0.11,0.11,-0.06,-0.14,-0.01,0.17,0.17,-0.01,-0.17,-0.15,-0.03,0.04,0.05,0.11,0.17,0.06,-0.21,-0.33,-0.11,0.25,0.37,0.11,-0.25,-0.32,-0.06,0.24,0.26,-0.0,-0.25,-0.23,0.01,0.23,0
0.21220273325289662,0.21216503010628307,-0.52,0.59,0.16140000000000002,14.48,0.14626262626262626,28,90,0.59,0.0,0.2,0.34,0.24,-0.13,-0.5,-0.48,-0.01,0.51,0.59,0.13,-0.42,-0.51,-0.08,0.34,0.3,-0.1,-0.35,-0.14,0.29,0.45,0.12,-0.38,-0.52,-0.18,0.29,0.46,0.26,-0.08,-0.29,-0.27,-0.1,0.08,0.18,0.18,0.08,-0.06,-0.15,-0.13,-0.03,0.06,0.07,0.03,0.02,0.06,0.06,-0.05,-0.17,-0.14,0.03,0.17,0.15,0.02,-0.06,-0.05,-0.04,-0.08,-0.1,-0.03,0.12,0.25,0.18,-0.09,-0.31,-0.27,-0.01,0.21,0.23,0.12,-0.01,-0.12,-0.18,-0.15,-0.02,0.15,0.21,0.11,-0.06,-0.16,-0.11,-0.01,0.04,0.03,0.04,0.1,0.1,-0.03,-0.19,-0.19,-0.01,0.17,0.17,0.05,-0.03,-0.07,-0.11,-0.11,0.0,0.14,0.14,1
0.2148813626166774,0.21485446236929778,-0.53,0.53,0.165,15.549999999999999,0.15707070707070706,31,96,0.16,-0.01,-0.13,-0.06,0.09,0.1,-0.05,-0.15,-0.07,0.1,0.16,0.04,-0.09,-0.09,0.02,0.05,-0.03,-0.08,0.0,0.14,0.14,-0.04,-0.21,-0.16,0.08,0.24,0.14,-0.09,-0.21,-0.1,0.09,0.16,0.05,-0.09,-0.12,-0.04,0.08,0.13,0.07,-0.05,-0.14,-0.12,-0.02,0.09,0.13,0.09,0.02,-0.02,-0.06,-0.14,-0.2,-0.1,0.2,0.44,0.29,-0.18,-0.53,-0.44,0.02,0.42,0.48,0.18,-0.21,-0.38,-0.23,0.02,0.12,0.05,0.02,0.14,0.24,0.11,-0.21,-0.45,-0.35,0.07,0.46,0.5,0.14,-0.29,-0.43,-0.22,0.06,0.15,0.08,0.07,0.2,0.23,-0.03,-0.41,-0.49,-0.11,0.4,0.53,0.17,-0.25,-0.31,-0.07,0.08,-0.02,-0.14,1
0.22520213142863457,0.22519991119003577,-0.5,0.48,0.17999999999999997,16.670000000000005,0.16838383838383844,32,94,0.47,-0.01,0.28,0.37,0.04,-0.41,-0.47,-0.07,0.33,0.35,0.08,-0.1,-0.07,-0.03,-0.13,-0.24,-0.13,0.19,0.46,0.36,-0.09,-0.5,-0.49,-0.08,0.36,0.44,0.13,-0.18,-0.17,0.03,0.06,-0.16,-0.29,-0.05,0.34,0.44,0.12,-0.27,-0.37,-0.18,0.04,0.13,0.16,0.18,0.12,-0.06,-0.23,-0.23,-0.06,0.13,0.17,0.06,-0.03,0.03,0.1,0.01,-0.23,-0.33,-0.1,0.3,0.48,0.24,-0.21,-0.47,-0.34,0.04,0.32,0.31,0.1,-0.11,-0.18,-0.14,-0.05,0.04,0.1,0.09,0.03,-0.04,-0.04,0.02,0.05,-0.04,-0.17,-0.14,0.08,0.3,0.26,-0.04,-0.32,-0.32,-0.05,0.23,0.27,0.06,-0.12,-0.08,0.06,0.06,-0.11,-0.22,-0.1,1
0.20705313327742714,0.207047699818182,-0.64,0.57,0.1659,15.5,0.15656565656565657,32,94,0.32,0.16,0.32,0.22,-0.06,-0.28,-0.29,-0.11,0.12,0.25,0.24,0.08,-0.14,-0.26,-0.16,0.07,0.18,0.05,-0.1,-0.02,0.17,0.17,-0.1,-0.35,-0.26,0.12,0.4,0.32,-0.05,-0.33,-0.29,-0.03,0.17,0.15,0.03,-0.01,0.07,0.1,-0.03,-0.26,-0.33,-0.08,0.36,0.57,0.26,-0.33,-0.64,-0.37,0.19,0.5,0.33,-0.03,-0.2,-0.15,-0.08,-0.07,-0.03,0.07,0.15,0.12,0.02,-0.07,-0.11,-0.11,-0.04,0.08,0.14,0.06,-0.05,-0.07,0.01,0.05,-0.04,-0.15,-0.09,0.14,0.3,0.17,-0.16,-0.37,-0.23,0.14,0.34,0.19,-0.11,-0.24,-0.1,0.13,0.18,0.02,-0.17,-0.18,-0.01,0.15,0.19,0.1,-0.04,-0.15,-0.18,-0.11,0.02,1
0.21002142747824565,0.20999854761402517,-0.52,0.46,0.17410000000000003,15.010000000000002,0.15161616161616162,30,95,0.37,0.14,0.21,0.2,0.05,-0.21,-0.37,-0.26,0.06,0.34,0.37,0.15,-0.14,-0.33,-0.3,-0.08,0.17,0.28,0.16,-0.02,-0.08,-0.04,-0.06,-0.15,-0.15,0.06,0.3,0.29,-0.02,-0.32,-0.31,-0.02,0.21,0.19,0.01,-0.08,-0.01,0.08,0.03,-0.14,-0.24,-0.11,0.17,0.33,0.23,-0.05,-0.28,-0.31,-0.12,0.13,0.23,0.16,0.06,0.0,-0.07,-0.18,-0.24,-0.14,0.11,0.36,0.38,0.1,-0.31,-0.52,-0.33,0.12,0.46,0.39,0.04,-0.25,-0.25,-0.07,0.03,0.01,-0.03,0.04,0.18,0.2,0.03,-0.22,-0.3,-0.13,0.12,0.22,0.16,0.07,0.02,-0.07,-0.22,-0.27,-0.08,0.23,0.38,0.21,-0.12,-0.32,-0.23,-0.0,0.16,0.16,0.07,1
0.1566875872556598,0.15668755534502413,-0.42,0.4,0.1269,11.16,0.11272727272727273,29,92,0.25,-0.03,-0.09,-0.04,0.06,0.06,-0.08,-0.17,-0.06,0.17,0.25,0.07,-0.17,-0.19,-0.03,0.08,0.02,-0.04,0.04,0.14,0.09,-0.09,-0.2,-0.13,0.06,0.2,0.18,0.02,-0.16,-0.21,-0.08,0.09,0.16,0.1,-0.01,-0.1,-0.1,-0.01,0.09,0.1,-0.01,-0.14,-0.14,0.02,0.17,0.17,0.03,-0.11,-0.16,-0.12,-0.01,0.12,0.17,0.09,-0.03,-0.09,-0.08,-0.06,-0.07,-0.03,0.11,0.23,0.18,-0.06,-0.29,-0.3,-0.1,0.19,0.37,0.3,-0.01,-0.34,-0.42,-0.17,0.21,0.4,0.25,-0.05,-0.24,-0.21,-0.05,0.05,0.06,0.05,0.09,0.1,0.03,-0.1,-0.16,-0.11,-0.03,0.04,0.12,0.19,0.16,-0.02,-0.25,-0.3,-0.1,0.17,0.29,1
0.14777685881084357,0.14775736868258044,-0.34,0.33,0.12060000000000003,10.870000000000001,0.10979797979797981,33,94,0.17,0.17,-0.05,-0.17,-0.15,-0.05,0.04,0.07,0.04,0.01,0.02,0.05,0.04,-0.06,-0.17,-0.16,0.02,0.23,0.27,0.09,-0.17,-0.3,-0.2,0.03,0.2,0.23,0.15,-0.0,-0.17,-0.25,-0.17,0.04,0.21,0.24,0.11,-0.08,-0.2,-0.15,-0.02,0.05,0.05,0.06,0.1,0.06,-0.07,-0.13,-0.06,0.06,0.06,-0.04,-0.07,0.03,0.14,0.1,-0.06,-0.17,-0.11,0.03,0.1,0.07,0.01,-0.01,0.03,0.03,-0.05,-0.15,-0.13,0.01,0.16,0.21,0.12,-0.05,-0.2,-0.26,-0.14,0.12,0.33,0.3,-0.0,-0.3,-0.34,-0.08,0.21,0.27,0.09,-0.12,-0.15,0.0,0.12,0.06,-0.12,-0.21,-0.06,0.19,0.28,0.12,-0.13,-0.24,-0.16,-0.02,0.08,1
0.1584802826852603,0.15846766231632245,-0.4,0.37,0.12240000000000001,11.12,0.11232323232323231,33,91,0.21,0.15,0.17,0.09,-0.07,-0.21,-0.19,-0.05,0.11,0.2,0.18,0.03,-0.16,-0.23,-0.09,0.12,0.17,0.02,-0.09,-0.02,0.11,0.07,-0.11,-0.2,-0.07,0.13,0.19,0.08,-0.03,-0.07,-0.06,-0.09,-0.1,-0.01,0.15,0.23,0.1,-0.13,-0.22,-0.11,0.04,0.05,-0.0,0.06,0.2,0.2,-0.07,-0.38,-0.37,-0.01,0.34,0.37,0.14,-0.07,-0.15,-0.18,-0.22,-0.15,0.11,0.36,0.33,0.01,-0.29,-0.28,-0.04,0.1,0.03,-0.03,0.11,0.27,0.14,-0.21,-0.4,-0.21,0.17,0.34,0.18,-0.07,-0.16,-0.08,0.0,-0.01,-0.03,0.01,0.09,0.1,0.01,-0.09,-0.1,-0.03,0.04,0.06,0.03,0.0,-0.01,-0.01,-0.02,-0.03,-0.01,0.02,0.01,1
0.18612092843095318,0.1861013433589344,-0.42,0.46,0.15089999999999998,13.360000000000001,0.13494949494949496,32,97,0.26,-0.02,-0.01,0.06,0.09,0.0,-0.14,-0.18,-0.05,0.16,0.26,0.14,-0.12,-0.3,-0.24,0.02,0.26,0.3,0.11,-0.15,-0.29,-0.21,0.01,0.21,0.23,0.07,-0.12,-0.16,-0.04,0.08,0.05,-0.06,-0.08,0.02,0.11,0.07,-0.03,-0.06,-0.01,0.02,-0.04,-0.1,-0.07,0.07,0.22,0.2,-0.02,-0.28,-0.32,-0.1,0.18,0.28,0.21,0.07,-0.07,-0.21,-0.3,-0.2,0.08,0.33,0.36,0.15,-0.16,-0.35,-0.3,-0.09,0.13,0.26,0.3,0.19,-0.08,-0.36,-0.42,-0.14,0.27,0.46,0.28,-0.11,-0.35,-0.26,0.03,0.21,0.14,-0.04,-0.1,-0.03,0.05,0.06,0.03,-0.01,-0.06,-0.09,-0.07,0.03,0.15,0.19,0.05,-0.19,-0.32,-0.17,0.16,1
0.2162660398675668,0.21620108695378937,-0.43,0.47,0.17850000000000002,17.330000000000002,0.17505050505050507,35,96,0.39,0.39,0.3,-0.04,-0.34,-0.35,-0.11,0.15,0.25,0.19,0.09,0.01,-0.1,-0.25,-0.3,-0.11,0.25,0.47,0.28,-0.15,-0.39,-0.25,0.05,0.16,0.04,-0.06,0.05,0.23,0.18,-0.16,-0.43,-0.28,0.18,0.47,0.3,-0.14,-0.38,-0.22,0.09,0.22,0.11,-0.05,-0.1,-0.04,0.03,0.08,0.06,-0.05,-0.18,-0.14,0.1,0.32,0.24,-0.13,-0.42,-0.32,0.12,0.44,0.31,-0.11,-0.35,-0.17,0.12,0.18,0.0,-0.1,-0.01,0.08,0.01,-0.09,-0.03,0.11,0.11,-0.07,-0.18,-0.08,0.14,0.21,0.06,-0.15,-0.2,-0.05,0.11,0.11,-0.01,-0.05,0.06,0.15,0.04,-0.21,-0.32,-0.09,0.29,0.43,0.18,-0.25,-0.43,-0.22,0.14,0.32,0.18,1
0.20509997562164653,0.20508817615845143,-0.48,0.5,0.16680000000000003,14.569999999999999,0.14717171717171715,31,94,0.29,-0.09,-0.19,-0.03,0.15,0.11,-0.13,-0.26,-0.09,0.2,0.29,0.09,-0.17,-0.21,-0.04,0.08,0.03,-0.04,0.02,0.15,0.11,-0.1,-0.22,-0.09,0.11,0.14,0.01,-0.05,0.03,0.07,-0.02,-0.15,-0.15,0.01,0.17,0.17,0.06,-0.05,-0.1,-0.14,-0.16,-0.06,0.16,0.32,0.22,-0.08,-0.32,-0.3,-0.05,0.19,0.25,0.14,0.01,-0.06,-0.12,-0.17,-0.17,-0.04,0.17,0.29,0.24,0.04,-0.2,-0.36,-0.33,-0.07,0.29,0.5,0.36,-0.05,-0.41,-0.48,-0.25,0.11,0.38,0.4,0.17,-0.14,-0.31,-0.23,-0.02,0.07,0.01,0.0,0.14,0.27,0.16,-0.18,-0.41,-0.31,0.03,0.29,0.29,0.14,0.03,-0.06,-0.21,-0.34,-0.24,0.12,0.44,1
0.22239379487746505,0.22238387981146474,-0.6,0.57,0.17830000000000001,16.990000000000002,0.17161616161616164,34,98,0.42,0.42,0.05,-0.32,-0.39,-0.16,0.09,0.18,0.14,0.09,0.09,0.02,-0.17,-0.3,-0.19,0.16,0.39,0.25,-0.13,-0.35,-0.19,0.12,0.21,0.05,-0.08,-0.02,0.05,-0.02,-0.13,-0.07,0.13,0.19,-0.01,-0.21,-0.16,0.11,0.26,0.11,-0.19,-0.28,-0.07,0.2,0.23,0.02,-0.16,-0.13,0.06,0.14,0.01,-0.17,-0.15,0.07,0.23,0.15,-0.05,-0.17,-0.13,-0.04,-0.01,0.04,0.16,0.23,0.09,-0.19,-0.34,-0.22,0.04,0.23,0.29,0.25,0.07,-0.24,-0.46,-0.36,0.05,0.44,0.47,0.13,-0.24,-0.31,-0.12,0.03,-0.02,-0.1,0.01,0.27,0.4,0.17,-0.31,-0.6,-0.38,0.2,0.57,0.41,-0.04,-0.32,-0.25,-0.05,0.01,-0.02,0.03,1
0.225867217630182,0.2258650039293383,-0.47,0.56,0.1874,16.53,0.166969696969697,31,94,0.32,0.17,0.24,0.11,-0.15,-0.32,-0.26,-0.0,0.25,0.31,0.16,-0.06,-0.21,-0.22,-0.13,-0.01,0.11,0.23,0.28,0.14,-0.16,-0.43,-0.42,-0.07,0.37,0.56,0.33,-0.13,-0.47,-0.44,-0.14,0.21,0.36,0.26,0.01,-0.17,-0.18,-0.09,0.0,0.04,0.03,0.02,0.04,0.08,0.07,-0.02,-0.13,-0.17,-0.1,0.07,0.21,0.21,0.07,-0.14,-0.27,-0.2,0.04,0.26,0.27,0.03,-0.25,-0.26,0.0,0.24,0.19,-0.08,-0.25,-0.12,0.15,0.28,0.12,-0.14,-0.27,-0.19,0.03,0.21,0.25,0.12,-0.08,-0.2,-0.2,-0.13,-0.01,0.17,0.34,0.29,-0.06,-0.45,-0.47,-0.05,0.42,0.44,0.03,-0.32,-0.22,0.13,0.21,-0.07,-0.3,-0.11,0.26,1
0.15310453944935795,0.15310424553225166,-0.38,0.43,0.11610000000000001,11.590000000000002,0.11707070707070709,37,89,0.34,0.34,0.05,-0.24,-0.23,-0.0,0.12,0.03,-0.09,-0.02,0.19,0.24,-0.04,-0.36,-0.31,0.09,0.39,0.26,-0.13,-0.32,-0.14,0.15,0.21,0.02,-0.14,-0.1,0.04,0.11,0.03,-0.06,-0.05,0.02,0.03,-0.03,-0.03,0.05,0.11,0.03,-0.11,-0.13,-0.03,0.07,0.08,0.04,0.02,0.02,-0.03,-0.1,-0.1,-0.0,0.11,0.13,0.04,-0.06,-0.09,-0.07,-0.03,0.01,0.07,0.12,0.09,-0.04,-0.18,-0.18,-0.02,0.17,0.19,0.03,-0.1,-0.08,0.01,0.02,-0.06,-0.09,-0.0,0.12,0.15,0.05,-0.1,-0.16,-0.08,0.05,0.11,0.03,-0.08,-0.09,0.06,0.21,0.16,-0.13,-0.38,-0.27,0.12,0.43,0.33,-0.05,-0.34,-0.29,-0.03,0.14,0.13,1
0.18921680686450662,0.18921086121044955,-0.42,0.49,0.14830000000000002,14.100000000000001,0.14242424242424243,33,98,0.25,0.06,0.04,0.03,-0.01,-0.08,-0.13,-0.12,-0.03,0.14,0.25,0.19,-0.05,-0.28,-0.3,-0.11,0.16,0.32,0.28,0.03,-0.29,-0.37,-0.13,0.2,0.28,0.08,-0.09,-0.04,0.07,-0.0,-0.22,-0.25,0.04,0.37,0.35,-0.03,-0.37,-0.3,0.04,0.23,0.09,-0.09,-0.03,0.19,0.18,-0.13,-0.36,-0.2,0.16,0.28,0.1,-0.07,0.01,0.13,-0.01,-0.32,-0.37,-0.01,0.43,0.49,0.1,-0.34,-0.42,-0.16,0.15,0.23,0.13,0.02,-0.02,-0.04,-0.08,-0.1,-0.04,0.06,0.1,0.04,-0.01,0.01,0.04,-0.02,-0.13,-0.16,-0.03,0.18,0.27,0.13,-0.14,-0.3,-0.2,0.04,0.21,0.19,0.07,-0.04,-0.1,-0.1,-0.08,-0.04,0.05,0.13,0.12,1
0.24165885044831278,0.2416553537581984,-0.57,0.55,0.18969999999999998,17.150000000000006,0.1732323232323233,30,95,0.14,0.03,-0.08,-0.14,-0.09,0.03,0.12,0.08,-0.05,-0.12,-0.04,0.12,0.17,0.01,-0.2,-0.26,-0.07,0.21,0.33,0.2,-0.06,-0.28,-0.33,-0.2,0.04,0.29,0.42,0.31,-0.05,-0.45,-0.56,-0.24,0.28,0.55,0.36,-0.06,-0.28,-0.2,-0.06,-0.08,-0.14,-0.0,0.29,0.43,0.18,-0.27,-0.52,-0.33,0.11,0.38,0.29,0.03,-0.09,-0.04,-0.04,-0.17,-0.24,-0.08,0.22,0.4,0.26,-0.11,-0.4,-0.36,-0.01,0.27,0.23,0.02,-0.05,0.07,0.1,-0.13,-0.37,-0.3,0.1,0.49,0.5,0.1,-0.4,-0.57,-0.28,0.19,0.43,0.3,0.01,-0.18,-0.18,-0.09,-0.02,0.01,0.06,0.11,0.1,0.01,-0.1,-0.12,-0.06,0.03,0.08,0.07,-0.0,1
0.16752611736681539,0.16752107330124172,-0.38,0.41,0.1335,12.17,0.12292929292929293,32,95,0.29,-0.06,-0.04,0.04,0.1,0.04,-0.12,-0.2,-0.09,0.16,0.29,0.16,-0.12,-0.28,-0.19,0.04,0.19,0.16,0.03,-0.07,-0.08,-0.05,-0.02,0.01,0.01,-0.01,0.0,0.09,0.16,0.06,-0.19,-0.33,-0.16,0.19,0.39,0.25,-0.09,-0.3,-0.25,-0.06,0.08,0.14,0.19,0.14,-0.06,-0.22,-0.15,0.05,0.09,-0.03,-0.05,0.12,0.24,0.07,-0.25,-0.34,-0.11,0.19,0.28,0.15,0.02,-0.04,-0.11,-0.23,-0.25,-0.02,0.29,0.41,0.21,-0.15,-0.38,-0.34,-0.09,0.19,0.33,0.26,0.01,-0.22,-0.26,-0.09,0.11,0.15,0.03,-0.06,-0.02,0.07,0.06,-0.04,-0.12,-0.07,0.02,0.07,0.05,0.03,0.04,0.04,-0.05,-0.14,-0.13,-0.01,0.11,1
0.18429595763336754,0.18425881254366097,-0.54,0.54,0.1505,13.51,0.13646464646464646,33,97,0.35,0.15,0.13,0.06,-0.07,-0.23,-0.26,-0.07,0.22,0.35,0.18,-0.12,-0.29,-0.21,0.0,0.14,0.12,0.02,-0.0,0.05,0.05,-0.07,-0.19,-0.14,0.06,0.23,0.2,0.0,-0.19,-0.22,-0.05,0.16,0.2,0.03,-0.17,-0.16,0.05,0.22,0.12,-0.13,-0.23,-0.07,0.15,0.18,0.01,-0.12,-0.05,0.07,0.07,-0.07,-0.17,-0.09,0.11,0.27,0.22,-0.03,-0.32,-0.4,-0.13,0.32,0.54,0.28,-0.24,-0.54,-0.35,0.1,0.37,0.31,0.08,-0.11,-0.18,-0.19,-0.12,0.03,0.19,0.22,0.08,-0.08,-0.15,-0.12,-0.07,-0.01,0.09,0.18,0.16,-0.01,-0.19,-0.21,-0.08,0.08,0.15,0.13,0.07,0.0,-0.1,-0.18,-0.16,0.01,0.19,0.23,0.08,1
0.1679434428609822,0.16794103131754315,-0.54,0.48,0.1321,11.830000000000002,0.11949494949494952,30,94,0.2,-0.12,-0.2,-0.12,0.03,0.11,0.07,-0.03,-0.05,0.05,0.12,0.04,-0.15,-0.23,-0.09,0.15,0.25,0.15,-0.03,-0.15,-0.17,-0.1,-0.0,0.11,0.17,0.12,-0.02,-0.14,-0.16,-0.06,0.06,0.11,0.08,0.01,-0.03,-0.04,-0.04,-0.04,-0.03,0.01,0.06,0.09,0.08,0.02,-0.08,-0.16,-0.17,-0.03,0.19,0.31,0.18,-0.13,-0.35,-0.27,0.03,0.29,0.28,0.04,-0.21,-0.23,-0.01,0.2,0.16,-0.09,-0.24,-0.12,0.14,0.24,0.1,-0.08,-0.13,-0.09,-0.05,-0.02,0.06,0.15,0.13,-0.01,-0.13,-0.13,-0.06,-0.02,0.03,0.11,0.16,0.11,-0.01,-0.16,-0.26,-0.23,-0.0,0.34,0.48,0.21,-0.29,-0.54,-0.3,0.16,0.37,0.2,-0.05,1
0.2671179514746248,0.26710889165282387,-0.73,0.71,0.212,20.23,0.20434343434343435,32,97,0.55,-0.08,0.05,0.07,-0.13,-0.33,-0.26,0.13,0.54,0.55,0.03,-0.6,-0.73,-0.22,0.47,0.71,0.33,-0.26,-0.55,-0.34,0.11,0.4,0.3,-0.07,-0.36,-0.27,0.11,0.38,0.25,-0.15,-0.39,-0.21,0.14,0.3,0.16,-0.04,-0.12,-0.12,-0.11,-0.05,0.08,0.18,0.15,-0.01,-0.15,-0.18,-0.07,0.07,0.14,0.09,-0.03,-0.09,-0.01,0.12,0.08,-0.13,-0.27,-0.11,0.25,0.4,0.15,-0.26,-0.4,-0.18,0.13,0.26,0.19,0.06,-0.04,-0.12,-0.2,-0.19,0.01,0.25,0.28,0.04,-0.19,-0.16,0.04,0.09,-0.1,-0.24,-0.04,0.34,0.47,0.12,-0.41,-0.6,-0.26,0.29,0.54,0.33,-0.08,-0.33,-0.28,-0.06,0.13,0.15,0.03,-0.08,-0.05,1
0.19624474515257725,0.19623975132475072,-0.47,0.5,0.15220000000000003,14.23,0.14373737373737375,31,92,0.3,0.11,0.19,0.05,-0.2,-0.3,-0.13,0.15,0.29,0.18,-0.03,-0.16,-0.14,-0.06,-0.01,-0.01,0.01,0.12,0.23,0.16,-0.13,-0.41,-0.37,0.04,0.47,0.5,0.08,-0.38,-0.47,-0.16,0.22,0.32,0.15,-0.06,-0.12,-0.08,-0.03,-0.03,-0.01,0.04,0.09,0.07,-0.01,-0.08,-0.07,-0.02,0.03,0.04,0.02,0.01,0.01,-0.01,-0.05,-0.07,-0.0,0.11,0.12,-0.03,-0.18,-0.14,0.08,0.24,0.14,-0.11,-0.28,-0.2,0.07,0.32,0.31,0.0,-0.34,-0.38,-0.04,0.32,0.32,0.0,-0.24,-0.13,0.13,0.15,-0.12,-0.3,-0.12,0.26,0.41,0.16,-0.23,-0.39,-0.23,0.06,0.23,0.22,0.11,-0.03,-0.15,-0.2,-0.1,0.07,0.15,0.1,0.02,1
0.21044951888754698,0.21044417311961858,-0.43,0.42,0.17629999999999998,14.329999999999998,0.14474747474747474,28,96,0.3,0.01,0.01,-0.1,-0.21,-0.12,0.14,0.3,0.19,-0.1,-0.26,-0.17,0.04,0.13,0.05,-0.04,-0.02,0.08,0.11,0.01,-0.12,-0.15,-0.07,0.02,0.06,0.09,0.15,0.15,-0.01,-0.27,-0.37,-0.14,0.23,0.42,0.27,-0.05,-0.25,-0.26,-0.17,-0.04,0.12,0.26,0.25,0.08,-0.13,-0.23,-0.2,-0.11,0.0,0.16,0.29,0.28,0.03,-0.31,-0.43,-0.19,0.19,0.35,0.19,-0.04,-0.09,-0.02,-0.04,-0.18,-0.21,-0.0,0.29,0.39,0.17,-0.19,-0.43,-0.37,-0.07,0.26,0.41,0.33,0.05,-0.25,-0.4,-0.3,-0.05,0.2,0.33,0.29,0.11,-0.13,-0.31,-0.3,-0.13,0.09,0.24,0.27,0.15,-0.03,-0.17,-0.23,-0.2,-0.08,0.09,0.26,0.3,1
0.2426272861819132,0.24262695645785115,-0.64,0.72,0.183,16.140000000000004,0.16303030303030308,30,94,0.35,0.14,-0.15,-0.35,-0.31,-0.07,0.2,0.33,0.25,0.04,-0.19,-0.34,-0.28,0.0,0.32,0.39,0.14,-0.23,-0.37,-0.18,0.11,0.24,0.14,-0.03,-0.09,-0.06,-0.01,-0.01,-0.02,0.02,0.06,0.03,-0.04,-0.05,0.03,0.09,0.02,-0.11,-0.14,-0.02,0.11,0.14,0.05,-0.03,-0.05,-0.06,-0.08,-0.09,-0.01,0.12,0.18,0.1,-0.04,-0.13,-0.13,-0.1,-0.06,0.04,0.18,0.26,0.12,-0.16,-0.33,-0.21,0.04,0.15,0.12,0.13,0.19,0.11,-0.2,-0.47,-0.37,0.11,0.53,0.49,0.05,-0.36,-0.38,-0.12,0.1,0.09,-0.01,0.04,0.24,0.29,-0.01,-0.45,-0.58,-0.18,0.43,0.72,0.42,-0.21,-0.64,-0.54,-0.06,0.38,0.44,0.21,-0.06,1
0.13576818478568534,0.13576520172709944,-0.32,0.29,0.1087,8.97,0.0906060606060606,31,92,0.22,-0.17,-0.16,-0.13,-0.11,-0.02,0.12,0.22,0.19,0.05,-0.12,-0.24,-0.21,-0.06,0.13,0.23,0.19,0.05,-0.13,-0.21,-0.15,0.01,0.12,0.12,0.05,0.0,-0.02,-0.03,-0.06,-0.07,-0.04,0.01,0.09,0.15,0.09,-0.07,-0.21,-0.18,0.02,0.19,0.17,-0.0,-0.11,-0.06,0.04,0.03,-0.08,-0.1,0.02,0.14,0.11,-0.01,-0.06,-0.03,-0.04,-0.12,-0.11,0.08,0.28,0.25,-0.05,-0.32,-0.32,-0.07,0.19,0.29,0.21,0.02,-0.18,-0.27,-0.2,0.02,0.23,0.25,0.09,-0.11,-0.19,-0.13,-0.0,0.08,0.08,0.05,0.02,-0.01,-0.05,-0.06,-0.04,0.02,0.06,0.03,-0.03,-0.02,0.05,0.08,-0.0,-0.13,-0.16,-0.03,0.14,0.21,0.12,1
0.2243969696765088,0.22439474147136335,-0.66,0.53,0.18460000000000004,15.810000000000002,0.15969696969696973,28,96,0.22,-0.07,-0.22,-0.2,-0.01,0.18,0.2,0.04,-0.14,-0.17,-0.03,0.14,0.16,0.0,-0.19,-0.22,-0.02,0.25,0.33,0.1,-0.26,-0.4,-0.2,0.16,0.37,0.29,0.02,-0.22,-0.26,-0.16,-0.02,0.1,0.19,0.22,0.11,-0.07,-0.21,-0.23,-0.11,0.05,0.17,0.18,0.12,0.03,-0.06,-0.16,-0.24,-0.23,0.01,0.37,0.53,0.23,-0.34,-0.66,-0.42,0.15,0.53,0.46,0.09,-0.23,-0.3,-0.2,-0.08,0.01,0.12,0.23,0.23,0.07,-0.15,-0.25,-0.17,-0.04,0.04,0.11,0.19,0.22,0.07,-0.18,-0.34,-0.25,0.02,0.28,0.34,0.15,-0.14,-0.29,-0.18,0.04,0.12,0.02,-0.06,0.04,0.22,0.21,-0.08,-0.36,-0.34,-0.02,0.3,0.35,0.12,1
0.19939658974014576,0.19935021946313478,-0.61,0.54,0.1523,13.440000000000001,0.13575757575757577,29,94,0.33,-0.18,-0.27,-0.09,0.14,0.15,-0.06,-0.22,-0.08,0.23,0.33,0.07,-0.29,-0.37,-0.12,0.19,0.3,0.19,0.01,-0.13,-0.22,-0.22,-0.07,0.16,0.27,0.16,-0.04,-0.12,-0.08,-0.06,-0.14,-0.18,0.02,0.35,0.46,0.13,-0.4,-0.61,-0.27,0.28,0.54,0.32,-0.09,-0.31,-0.24,-0.04,0.08,0.08,0.02,0.01,0.06,0.1,0.07,-0.06,-0.2,-0.22,-0.08,0.13,0.28,0.28,0.11,-0.17,-0.39,-0.35,-0.03,0.33,0.43,0.2,-0.15,-0.33,-0.25,-0.03,0.14,0.17,0.11,0.03,-0.04,-0.09,-0.1,-0.06,0.03,0.09,0.07,-0.0,-0.03,0.0,0.02,-0.02,-0.07,-0.06,0.03,0.1,0.07,-0.01,-0.05,-0.03,-0.01,-0.03,-0.05,-0.02,0.06,1
0.2413047865252573,0.24126823247166213,-0.56,0.54,0.1972,17.340000000000003,0.1751515151515152,32,98,0.28,0.12,0.1,-0.01,-0.1,-0.13,-0.11,-0.06,0.05,0.21,0.28,0.13,-0.18,-0.41,-0.36,-0.01,0.4,0.54,0.28,-0.22,-0.56,-0.47,-0.03,0.4,0.48,0.22,-0.1,-0.26,-0.25,-0.17,-0.05,0.14,0.29,0.24,0.0,-0.22,-0.22,-0.02,0.09,-0.01,-0.12,-0.01,0.26,0.33,0.04,-0.35,-0.46,-0.18,0.22,0.43,0.32,0.02,-0.25,-0.35,-0.24,0.0,0.26,0.34,0.18,-0.13,-0.3,-0.17,0.08,0.13,-0.04,-0.13,0.04,0.28,0.24,-0.07,-0.35,-0.33,-0.07,0.19,0.3,0.25,0.09,-0.16,-0.34,-0.3,-0.03,0.27,0.34,0.15,-0.12,-0.24,-0.17,-0.02,0.09,0.11,0.04,-0.04,-0.03,0.07,0.14,0.02,-0.24,-0.35,-0.11,0.33,0.54,1
0.1829754081837229,0.18296218188467253,-0.57,0.4,0.1456,12.750000000000002,0.1287878787878788,33,91,0.57,0.27,-0.28,-0.57,-0.37,0.1,0.37,0.31,0.12,-0.01,-0.11,-0.24,-0.29,-0.13,0.16,0.35,0.31,0.1,-0.17,-0.36,-0.34,-0.07,0.27,0.4,0.19,-0.15,-0.28,-0.12,0.09,0.1,-0.06,-0.14,0.03,0.23,0.2,-0.06,-0.25,-0.19,-0.01,0.1,0.09,0.08,0.1,0.08,-0.07,-0.24,-0.23,-0.0,0.23,0.25,0.09,-0.07,-0.12,-0.12,-0.12,-0.06,0.08,0.2,0.18,0.01,-0.17,-0.2,-0.08,0.07,0.13,0.08,0.01,-0.04,-0.05,-0.02,0.01,-0.0,-0.05,-0.05,0.04,0.15,0.13,-0.05,-0.24,-0.23,0.03,0.3,0.29,0.0,-0.27,-0.28,-0.06,0.17,0.21,0.07,-0.08,-0.08,0.01,0.05,-0.03,-0.11,-0.07,0.05,0.13,0.11,0.04,1
0.1776991840161344,0.1776991558786929,-0.37,0.38,0.14889999999999998,14.26,0.14404040404040405,32,95,0.25,-0.05,-0.13,-0.15,-0.08,0.1,0.24,0.16,-0.08,-0.25,-0.16,0.09,0.2,0.08,-0.11,-0.14,0.01,0.16,0.14,-0.04,-0.2,-0.21,-0.03,0.2,0.29,0.15,-0.13,-0.32,-0.24,0.04,0.25,0.22,0.01,-0.13,-0.08,0.03,0.01,-0.11,-0.14,0.05,0.25,0.2,-0.07,-0.24,-0.12,0.09,0.09,-0.07,-0.13,0.06,0.27,0.22,-0.1,-0.37,-0.29,0.05,0.31,0.26,0.02,-0.16,-0.14,-0.01,0.08,0.03,-0.08,-0.11,-0.01,0.15,0.22,0.09,-0.16,-0.3,-0.19,0.08,0.27,0.23,0.02,-0.16,-0.17,-0.06,0.01,0.01,0.02,0.13,0.21,0.09,-0.2,-0.36,-0.21,0.13,0.38,0.33,0.01,-0.3,-0.36,-0.15,0.14,0.29,0.23,0.04,-0.15,1
0.18736061485808592,0.18732207558106975,-0.54,0.49,0.1468,13.180000000000001,0.13313131313131316,32,93,0.22,-0.22,-0.14,0.0,0.09,0.11,0.11,0.08,-0.01,-0.13,-0.16,-0.06,0.07,0.12,0.06,-0.05,-0.06,0.03,0.1,0.04,-0.09,-0.16,-0.11,0.02,0.16,0.22,0.11,-0.11,-0.24,-0.17,0.02,0.12,0.07,0.03,0.11,0.17,0.02,-0.29,-0.39,-0.12,0.28,0.43,0.22,-0.09,-0.25,-0.26,-0.17,0.01,0.23,0.33,0.15,-0.18,-0.34,-0.15,0.15,0.23,0.04,-0.15,-0.11,0.07,0.15,0.03,-0.13,-0.13,0.0,0.11,0.09,-0.0,-0.06,-0.04,0.02,0.02,-0.03,-0.08,-0.04,0.12,0.21,0.09,-0.18,-0.31,-0.15,0.14,0.28,0.18,-0.01,-0.1,-0.11,-0.12,-0.16,-0.1,0.14,0.4,0.38,-0.02,-0.47,-0.54,-0.16,0.3,0.49,0.34,0.04,1
0.22057878411125578,0.22054430393914054,-0.44,0.44,0.18429999999999996,16.470000000000002,0.16636363636363638,34,94,0.39,-0.24,-0.37,-0.32,-0.08,0.22,0.39,0.31,0.06,-0.21,-0.37,-0.33,-0.05,0.29,0.44,0.24,-0.16,-0.39,-0.24,0.12,0.27,0.08,-0.18,-0.16,0.1,0.26,0.11,-0.19,-0.28,-0.09,0.15,0.18,0.05,-0.04,-0.01,0.04,-0.02,-0.14,-0.17,-0.04,0.14,0.23,0.18,0.03,-0.14,-0.26,-0.27,-0.09,0.22,0.44,0.33,-0.08,-0.44,-0.43,-0.07,0.3,0.34,0.11,-0.11,-0.11,0.0,0.01,-0.13,-0.2,-0.03,0.25,0.32,0.09,-0.21,-0.27,-0.09,0.08,0.07,-0.02,0.02,0.17,0.18,-0.04,-0.29,-0.32,-0.07,0.24,0.38,0.25,-0.06,-0.34,-0.37,-0.15,0.18,0.37,0.3,-0.01,-0.29,-0.28,-0.03,0.17,0.13,-0.04,-0.09,0.03,0.15,1
0.19761072845369504,0.19761062724458928,-0.41,0.42,0.16100000000000006,15.810000000000002,0.15969696969696973,34,96,0.32,0.09,-0.12,-0.26,-0.13,0.17,0.32,0.14,-0.18,-0.29,-0.11,0.14,0.18,0.04,-0.1,-0.08,0.03,0.09,0.02,-0.08,-0.07,0.03,0.05,-0.02,-0.05,0.05,0.17,0.08,-0.18,-0.31,-0.09,0.27,0.37,0.09,-0.27,-0.33,-0.05,0.24,0.22,-0.07,-0.25,-0.09,0.23,0.29,0.0,-0.33,-0.34,-0.02,0.31,0.34,0.07,-0.21,-0.24,-0.08,0.06,0.08,0.04,0.02,0.02,0.04,0.02,-0.02,-0.09,-0.14,-0.1,0.08,0.28,0.27,-0.02,-0.37,-0.4,-0.07,0.32,0.42,0.18,-0.15,-0.32,-0.25,-0.06,0.12,0.23,0.22,0.04,-0.18,-0.22,-0.06,0.12,0.11,-0.05,-0.16,-0.03,0.22,0.29,0.03,-0.33,-0.41,-0.1,0.3,0.39,0.13,-0.16,1
0.15818027689949213,0.15818024528998556,-0.34,0.37,0.1271,12.36,0.12484848484848485,35,93,0.26,-0.21,-0.07,0.02,-0.03,-0.07,0.02,0.2,0.22,-0.0,-0.26,-0.25,0.03,0.23,0.12,-0.13,-0.17,0.07,0.26,0.12,-0.21,-0.33,-0.1,0.23,0.31,0.09,-0.16,-0.2,-0.06,0.06,0.07,0.03,0.01,0.0,-0.02,-0.03,0.02,0.06,0.02,-0.08,-0.14,-0.06,0.12,0.23,0.14,-0.11,-0.3,-0.24,0.05,0.32,0.31,0.01,-0.28,-0.3,-0.06,0.19,0.22,0.05,-0.12,-0.11,0.04,0.11,0.01,-0.13,-0.13,0.01,0.13,0.14,0.06,-0.04,-0.13,-0.15,-0.08,0.06,0.18,0.16,0.02,-0.13,-0.15,-0.06,0.02,0.02,0.02,0.1,0.18,0.08,-0.18,-0.34,-0.18,0.17,0.37,0.23,-0.09,-0.27,-0.19,0.01,0.09,0.03,-0.01,0.09,0.19,1
0.16719449751711327,0.16718863597744915,-0.36,0.37,0.1366,12.150000000000002,0.12272727272727275,33,98,0.37,0.08,-0.21,-0.36,-0.16,0.21,0.37,0.18,-0.11,-0.2,-0.08,0.01,-0.04,-0.09,0.01,0.18,0.22,0.07,-0.14,-0.24,-0.19,-0.06,0.09,0.22,0.27,0.12,-0.16,-0.34,-0.23,0.04,0.2,0.16,0.08,0.05,0.0,-0.11,-0.2,-0.15,0.04,0.19,0.18,0.05,-0.07,-0.11,-0.09,-0.04,0.0,0.06,0.1,0.08,-0.02,-0.11,-0.09,0.04,0.13,0.05,-0.1,-0.14,-0.01,0.13,0.14,0.01,-0.11,-0.13,-0.08,-0.0,0.1,0.2,0.17,-0.05,-0.31,-0.32,-0.03,0.3,0.37,0.11,-0.2,-0.29,-0.14,0.06,0.15,0.11,0.01,-0.06,-0.06,0.01,0.08,0.05,-0.08,-0.19,-0.11,0.1,0.27,0.23,-0.01,-0.26,-0.33,-0.15,0.16,0.37,0.29,1
0.21451107197531782,0.21450713274854055,-0.48,0.59,0.1715,14.81,0.1495959595959596,32,98,0.35,-0.02,-0.31,-0.35,-0.12,0.18,0.34,0.22,-0.06,-0.27,-0.24,-0.03,0.16,0.19,0.07,-0.06,-0.1,-0.06,-0.01,0.02,0.04,0.02,-0.04,-0.06,0.01,0.15,0.16,-0.03,-0.27,-0.27,-0.02,0.24,0.29,0.15,-0.03,-0.18,-0.26,-0.21,-0.0,0.25,0.31,0.1,-0.15,-0.17,-0.03,0.02,-0.09,-0.15,-0.0,0.25,0.33,0.11,-0.23,-0.37,-0.2,0.1,0.24,0.15,0.01,-0.02,0.02,-0.01,-0.11,-0.15,-0.07,0.06,0.17,0.19,0.1,-0.07,-0.21,-0.22,-0.08,0.07,0.17,0.2,0.18,0.04,-0.21,-0.39,-0.29,0.08,0.41,0.45,0.19,-0.19,-0.48,-0.47,-0.11,0.37,0.59,0.33,-0.17,-0.47,-0.37,-0.07,0.18,0.27,0.23,0.1,-0.09,1
0.18600268815261783,0.18599814515204177,-0.38,0.38,0.15289999999999998,15.510000000000003,0.1566666666666667,34,95,0.25,-0.25,-0.25,-0.06,0.16,0.24,0.12,-0.05,-0.11,-0.06,-0.03,-0.07,-0.07,0.05,0.2,0.19,-0.04,-0.26,-0.23,0.05,0.26,0.18,-0.11,-0.26,-0.1,0.22,0.3,0.02,-0.33,-0.35,0.02,0.36,0.3,-0.06,-0.26,-0.09,0.13,0.06,-0.18,-0.18,0.15,0.38,0.15,-0.27,-0.38,-0.08,0.23,0.21,-0.01,-0.09,0.04,0.1,-0.06,-0.24,-0.16,0.12,0.29,0.15,-0.11,-0.18,-0.04,0.1,0.04,-0.15,-0.19,0.03,0.32,0.32,-0.02,-0.37,-0.36,-0.02,0.28,0.26,0.03,-0.11,-0.06,0.01,-0.04,-0.13,-0.08,0.11,0.23,0.14,-0.08,-0.21,-0.13,0.02,0.09,0.04,0.01,0.06,0.11,0.03,-0.17,-0.28,-0.14,0.15,0.36,0.29,-0.02,1
0.1750828375369785,0.17507552655925387,-0.4,0.4,0.1466,12.33,0.12454545454545454,29,95,0.37,-0.32,-0.37,-0.13,0.19,0.33,0.19,-0.06,-0.18,-0.09,0.03,0.01,-0.1,-0.08,0.1,0.25,0.15,-0.12,-0.27,-0.14,0.09,0.15,0.02,-0.07,0.01,0.13,0.08,-0.1,-0.2,-0.12,0.03,0.12,0.14,0.14,0.08,-0.11,-0.29,-0.27,-0.02,0.26,0.33,0.19,-0.03,-0.21,-0.3,-0.25,-0.04,0.24,0.4,0.29,-0.04,-0.34,-0.4,-0.18,0.15,0.34,0.28,0.06,-0.15,-0.22,-0.15,-0.03,0.04,0.08,0.12,0.15,0.09,-0.05,-0.2,-0.23,-0.11,0.09,0.22,0.21,0.08,-0.07,-0.19,-0.19,-0.07,0.1,0.17,0.09,-0.05,-0.07,0.02,0.08,-0.02,-0.15,-0.14,0.02,0.17,0.19,0.08,-0.07,-0.17,-0.18,-0.07,0.09,0.2,0.17,0.01,1
0.15884268947609773,0.15883132562564603,-0.42,0.4,0.1265,10.89,0.11,30,94,0.17,-0.14,-0.17,-0.08,0.04,0.1,0.08,0.03,-0.02,-0.04,-0.05,-0.04,-0.0,0.03,0.02,-0.01,-0.0,0.06,0.07,-0.02,-0.14,-0.14,-0.02,0.12,0.18,0.11,-0.04,-0.18,-0.19,-0.04,0.13,0.19,0.11,-0.03,-0.13,-0.15,-0.06,0.05,0.13,0.12,0.02,-0.1,-0.14,-0.06,0.1,0.17,0.05,-0.14,-0.21,-0.03,0.21,0.24,0.02,-0.2,-0.23,-0.09,0.04,0.14,0.23,0.21,-0.01,-0.33,-0.42,-0.13,0.28,0.4,0.19,-0.07,-0.16,-0.14,-0.16,-0.17,-0.01,0.26,0.39,0.19,-0.19,-0.4,-0.28,0.02,0.23,0.23,0.11,-0.01,-0.09,-0.14,-0.13,-0.05,0.07,0.15,0.12,0.01,-0.05,-0.06,-0.09,-0.13,-0.04,0.19,0.3,0.09,-0.27,1
0.21730623552949418,0.21730540720377853,-0.55,0.53,0.17300000000000001,16.2,0.16363636363636364,31,93,0.38,-0.36,-0.04,0.32,0.29,-0.12,-0.37,-0.12,0.33,0.38,-0.03,-0.41,-0.34,0.04,0.28,0.22,0.04,-0.04,-0.02,-0.06,-0.17,-0.19,-0.02,0.22,0.3,0.14,-0.1,-0.23,-0.19,-0.05,0.06,0.09,0.07,0.07,0.11,0.1,-0.05,-0.28,-0.35,-0.11,0.29,0.53,0.35,-0.14,-0.55,-0.51,-0.08,0.38,0.49,0.22,-0.13,-0.3,-0.23,-0.06,0.07,0.13,0.12,0.08,0.0,-0.08,-0.12,-0.08,-0.02,0.03,0.09,0.13,0.1,-0.05,-0.19,-0.19,-0.01,0.18,0.21,0.04,-0.15,-0.15,0.03,0.15,0.04,-0.18,-0.19,0.09,0.35,0.25,-0.16,-0.45,-0.28,0.16,0.41,0.24,-0.12,-0.27,-0.09,0.11,0.1,-0.07,-0.12,-0.0,0.11,0.1,0.04,1
0.1737152843016411,0.17369430042462533,-0.42,0.4,0.1457,12.630000000000003,0.1275757575757576,30,94,0.42,0.01,-0.03,-0.15,-0.23,-0.08,0.24,0.4,0.17,-0.24,-0.42,-0.2,0.17,0.32,0.14,-0.12,-0.16,0.0,0.11,0.02,-0.14,-0.14,0.02,0.17,0.16,0.05,-0.07,-0.15,-0.14,-0.06,0.07,0.18,0.16,0.02,-0.13,-0.16,-0.07,0.03,0.06,0.05,0.06,0.08,0.05,-0.07,-0.18,-0.16,-0.0,0.16,0.21,0.14,-0.02,-0.18,-0.23,-0.12,0.06,0.18,0.2,0.14,0.02,-0.17,-0.31,-0.23,0.05,0.33,0.36,0.13,-0.19,-0.35,-0.26,-0.02,0.21,0.27,0.16,-0.03,-0.17,-0.19,-0.1,0.03,0.15,0.17,0.04,-0.14,-0.18,-0.02,0.15,0.16,0.01,-0.13,-0.16,-0.09,0.04,0.19,0.24,0.1,-0.19,-0.35,-0.22,0.07,0.28,0.29,0.14,1
0.22225210910135365,0.22222907100557296,-0.5,0.49,0.17800000000000005,15.019999999999998,0.1517171717171717,27,94,0.46,-0.05,-0.23,-0.32,-0.23,0.02,0.31,0.45,0.27,-0.13,-0.46,-0.43,-0.1,0.26,0.38,0.22,-0.02,-0.13,-0.11,-0.11,-0.17,-0.15,0.07,0.36,0.4,0.05,-0.4,-0.5,-0.16,0.3,0.44,0.18,-0.16,-0.26,-0.13,0.03,0.08,0.06,0.04,-0.0,-0.05,-0.04,0.03,0.07,0.01,-0.09,-0.09,0.01,0.09,0.06,0.02,0.04,0.03,-0.09,-0.22,-0.18,0.1,0.39,0.37,-0.01,-0.43,-0.5,-0.14,0.32,0.49,0.27,-0.12,-0.33,-0.25,-0.04,0.09,0.09,0.06,0.1,0.14,0.06,-0.16,-0.29,-0.19,0.07,0.26,0.25,0.1,-0.08,-0.2,-0.21,-0.1,0.06,0.16,0.16,0.13,0.06,-0.09,-0.25,-0.27,-0.06,0.25,0.34,0.14,-0.12,-0.21,1
0.19756264829162418,0.19755837112104363,-0.49,0.55,0.16150000000000003,14.22,0.14363636363636365,31,97,0.21,-0.11,-0.0,0.0,-0.03,0.02,0.13,0.17,0.07,-0.11,-0.21,-0.17,-0.02,0.11,0.17,0.15,0.08,-0.04,-0.18,-0.24,-0.13,0.1,0.27,0.24,0.05,-0.19,-0.29,-0.16,0.1,0.25,0.15,-0.07,-0.14,0.0,0.12,0.01,-0.19,-0.22,-0.01,0.27,0.37,0.18,-0.2,-0.49,-0.43,0.01,0.48,0.55,0.16,-0.32,-0.47,-0.22,0.14,0.27,0.13,-0.07,-0.12,0.02,0.14,0.08,-0.11,-0.21,-0.12,0.06,0.15,0.13,0.08,0.04,-0.04,-0.17,-0.25,-0.12,0.14,0.32,0.25,0.02,-0.19,-0.25,-0.19,-0.04,0.13,0.25,0.22,0.04,-0.17,-0.25,-0.15,0.02,0.12,0.16,0.15,0.08,-0.08,-0.25,-0.25,-0.01,0.26,0.31,0.09,-0.19,-0.27,1
0.20959484726490774,0.20956726843665263,-0.66,0.56,0.16180000000000003,13.940000000000001,0.14080808080808083,27,92,0.22,-0.11,0.12,0.2,0.06,-0.13,-0.17,0.02,0.22,0.19,-0.06,-0.26,-0.22,-0.0,0.17,0.2,0.11,-0.02,-0.12,-0.14,-0.08,0.01,0.04,0.05,0.08,0.12,0.08,-0.09,-0.24,-0.19,0.04,0.22,0.18,0.03,-0.04,-0.02,-0.06,-0.2,-0.25,-0.02,0.36,0.53,0.22,-0.35,-0.66,-0.4,0.18,0.56,0.45,0.02,-0.28,-0.27,-0.1,-0.03,-0.06,0.01,0.21,0.35,0.21,-0.16,-0.44,-0.4,-0.05,0.31,0.44,0.27,-0.04,-0.3,-0.36,-0.2,0.07,0.26,0.26,0.13,-0.03,-0.13,-0.2,-0.18,-0.05,0.14,0.23,0.15,-0.01,-0.11,-0.11,-0.08,-0.07,-0.02,0.07,0.15,0.15,0.03,-0.12,-0.18,-0.1,0.02,0.08,0.08,0.09,0.09,-0.01,1
0.17059601402143018,0.17057464641616585,-0.48,0.53,0.1303,12.620000000000001,0.1274747474747475,36,95,0.21,-0.15,-0.2,-0.07,0.13,0.21,0.11,-0.07,-0.15,-0.09,0.01,0.06,0.02,-0.02,0.01,0.1,0.09,-0.04,-0.18,-0.15,0.03,0.18,0.14,-0.01,-0.09,-0.07,-0.01,0.04,0.06,0.01,-0.11,-0.17,-0.0,0.3,0.35,-0.04,-0.48,-0.42,0.13,0.53,0.32,-0.22,-0.44,-0.12,0.29,0.29,-0.08,-0.33,-0.17,0.18,0.31,0.1,-0.16,-0.21,-0.08,0.05,0.09,0.1,0.08,0.0,-0.12,-0.16,-0.06,0.09,0.14,0.09,0.02,-0.03,-0.08,-0.12,-0.09,0.03,0.16,0.16,0.03,-0.12,-0.16,-0.07,0.05,0.09,0.06,0.0,-0.02,0.0,0.02,-0.02,-0.1,-0.11,-0.01,0.17,0.24,0.09,-0.18,-0.32,-0.18,0.12,0.29,0.21,-0.02,-0.18,-0.17,1
0.17244999275152206,0.17244346899781388,-0.39,0.47,0.1367,11.8,0.1191919191919192,31,96,0.08,-0.05,0.05,0.08,0.06,0.02,-0.03,-0.03,0.02,0.05,-0.01,-0.1,-0.09,0.03,0.12,0.09,-0.0,-0.04,-0.02,-0.02,-0.06,-0.09,-0.04,0.07,0.19,0.2,0.03,-0.23,-0.34,-0.17,0.15,0.33,0.26,0.05,-0.16,-0.26,-0.24,-0.08,0.15,0.32,0.29,0.04,-0.26,-0.38,-0.19,0.13,0.29,0.17,-0.04,-0.08,0.04,0.07,-0.12,-0.32,-0.21,0.17,0.47,0.37,-0.04,-0.38,-0.39,-0.13,0.14,0.24,0.18,0.11,0.04,-0.07,-0.22,-0.26,-0.1,0.17,0.3,0.18,-0.04,-0.15,-0.11,-0.07,-0.07,-0.03,0.08,0.19,0.16,0.0,-0.15,-0.19,-0.12,0.0,0.12,0.18,0.15,0.02,-0.14,-0.22,-0.12,0.07,0.16,0.11,-0.01,-0.06,-0.03,1
0.13154086817411537,0.1315377892470449,-0.42,0.36,0.1003,9.1,0.09191919191919191,37,93,0.08,-0.0,-0.02,-0.04,-0.02,0.04,0.08,0.04,-0.03,-0.07,-0.04,0.01,0.03,0.0,-0.03,0.0,0.09,0.1,-0.02,-0.15,-0.15,-0.02,0.13,0.17,0.11,-0.02,-0.14,-0.18,-0.1,0.06,0.16,0.13,0.03,-0.03,-0.07,-0.11,-0.1,0.0,0.11,0.11,0.02,-0.01,0.03,0.05,-0.07,-0.23,-0.21,0.06,0.34,0.36,0.07,-0.3,-0.42,-0.21,0.13,0.3,0.22,0.05,-0.06,-0.12,-0.19,-0.17,0.0,0.22,0.26,0.06,-0.17,-0.22,-0.06,0.1,0.11,0.02,-0.04,-0.01,0.0,-0.03,-0.04,0.03,0.1,0.04,-0.09,-0.15,-0.03,0.13,0.16,0.04,-0.11,-0.16,-0.08,0.06,0.16,0.13,-0.02,-0.16,-0.16,-0.02,0.13,0.15,0.04,-0.08,-0.1,1
0.18430409653613236,0.18426491798494904,-0.41,0.43,0.14879999999999996,13.87,0.1401010101010101,34,92,0.17,-0.04,0.03,0.02,-0.02,0.0,0.09,0.11,-0.02,-0.17,-0.17,0.01,0.18,0.16,-0.02,-0.13,-0.06,0.07,0.05,-0.07,-0.12,-0.03,0.11,0.16,0.09,-0.04,-0.15,-0.15,-0.05,0.06,0.1,0.09,0.09,0.07,-0.04,-0.21,-0.25,-0.06,0.2,0.27,0.12,-0.04,-0.08,-0.08,-0.15,-0.2,-0.06,0.22,0.38,0.25,-0.11,-0.4,-0.39,-0.08,0.29,0.43,0.23,-0.15,-0.38,-0.25,0.1,0.28,0.12,-0.16,-0.18,0.09,0.29,0.13,-0.24,-0.41,-0.18,0.22,0.42,0.27,-0.08,-0.31,-0.27,-0.06,0.13,0.17,0.07,-0.03,-0.02,0.08,0.08,-0.09,-0.27,-0.22,0.08,0.35,0.28,-0.03,-0.25,-0.17,0.01,0.03,-0.07,-0.04,0.16,0.28,0.11,1
0.18682344606606527,0.1867942986281969,-0.44,0.44,0.1501,14.129999999999999,0.14272727272727273,30,94,0.34,-0.2,-0.34,-0.16,0.11,0.22,0.16,0.06,-0.04,-0.13,-0.17,-0.07,0.1,0.16,0.05,-0.07,-0.03,0.07,0.04,-0.12,-0.2,-0.05,0.2,0.3,0.13,-0.17,-0.33,-0.22,0.06,0.27,0.25,0.06,-0.13,-0.19,-0.12,0.01,0.09,0.07,0.02,0.01,0.05,0.05,-0.06,-0.19,-0.18,0.05,0.3,0.3,-0.01,-0.36,-0.36,0.03,0.39,0.32,-0.09,-0.36,-0.2,0.17,0.3,0.06,-0.22,-0.21,0.01,0.17,0.13,0.01,-0.03,-0.03,-0.08,-0.16,-0.09,0.13,0.27,0.16,-0.1,-0.22,-0.12,0.03,0.05,-0.04,-0.05,0.11,0.27,0.17,-0.17,-0.44,-0.33,0.1,0.44,0.39,0.04,-0.28,-0.32,-0.13,0.08,0.16,0.12,0.04,-0.04,-0.05,-0.01,1
0.200197402580553,0.20019677819585407,-0.52,0.49,0.1601,13.969999999999999,0.1411111111111111,28,97,0.15,0.01,-0.03,-0.08,-0.06,0.06,0.15,0.12,-0.03,-0.14,-0.12,-0.01,0.06,0.02,-0.01,0.07,0.16,0.08,-0.14,-0.3,-0.23,0.04,0.34,0.41,0.15,-0.26,-0.48,-0.31,0.1,0.4,0.35,0.05,-0.21,-0.25,-0.12,0.04,0.1,0.07,0.03,0.04,0.07,0.03,-0.09,-0.18,-0.12,0.04,0.17,0.17,0.09,-0.04,-0.16,-0.19,-0.1,0.06,0.17,0.16,0.06,-0.03,-0.08,-0.11,-0.14,-0.1,0.05,0.23,0.28,0.1,-0.19,-0.33,-0.19,0.06,0.17,0.13,0.08,0.11,0.07,-0.14,-0.35,-0.28,0.08,0.4,0.4,0.08,-0.27,-0.35,-0.17,0.01,0.06,0.1,0.23,0.3,0.09,-0.31,-0.52,-0.26,0.25,0.49,0.26,-0.14,-0.29,-0.12,0.08,1
0.18073461206974165,0.18070448251219448,-0.4,0.43,0.14410000000000003,13.46,0.13595959595959597,33,93,0.12,0.07,-0.05,-0.07,0.03,0.12,0.09,0.01,-0.06,-0.09,-0.09,-0.08,-0.02,0.1,0.23,0.21,-0.02,-0.3,-0.37,-0.14,0.2,0.39,0.3,-0.0,-0.31,-0.4,-0.18,0.21,0.43,0.24,-0.17,-0.39,-0.19,0.17,0.31,0.12,-0.16,-0.24,-0.08,0.13,0.21,0.1,-0.08,-0.19,-0.14,0.02,0.14,0.14,0.04,-0.07,-0.13,-0.09,0.01,0.11,0.1,0.02,-0.05,-0.06,-0.06,-0.07,-0.01,0.13,0.19,0.04,-0.21,-0.28,-0.03,0.29,0.32,0.01,-0.32,-0.31,0.02,0.3,0.24,-0.05,-0.25,-0.17,0.07,0.2,0.1,-0.08,-0.12,-0.03,0.05,0.03,-0.03,-0.04,0.0,0.07,0.1,0.03,-0.11,-0.2,-0.12,0.1,0.27,0.23,-0.03,-0.3,-0.33,1
0.19825236442474023,0.1982078706812623,-0.42,0.42,0.15700000000000003,15.589999999999998,0.15747474747474746,34,93,0.38,-0.05,0.3,0.38,0.08,-0.31,-0.37,-0.03,0.34,0.33,-0.05,-0.39,-0.31,0.11,0.42,0.31,-0.12,-0.42,-0.28,0.13,0.37,0.22,-0.12,-0.27,-0.15,0.06,0.16,0.16,0.08,-0.1,-0.27,-0.22,0.09,0.37,0.3,-0.09,-0.39,-0.3,0.07,0.31,0.2,-0.07,-0.17,-0.02,0.12,0.05,-0.16,-0.21,0.02,0.27,0.25,-0.02,-0.24,-0.21,-0.02,0.11,0.09,0.04,0.03,0.03,-0.02,-0.09,-0.11,-0.02,0.09,0.11,0.05,-0.04,-0.07,-0.03,-0.0,-0.01,-0.03,0.02,0.11,0.12,-0.01,-0.18,-0.18,-0.01,0.18,0.19,0.04,-0.12,-0.13,-0.04,0.06,0.05,-0.04,-0.07,0.04,0.2,0.17,-0.1,-0.37,-0.29,0.11,0.42,0.3,-0.06,-0.26,1
0.12472369462135091,0.12472305320188407,-0.33,0.3,0.10360000000000001,9.450000000000003,0.09545454545454549,31,95,0.19,-0.19,-0.02,0.04,0.02,0.04,0.11,0.13,0.03,-0.13,-0.19,-0.1,0.06,0.13,0.08,0.03,0.03,0.02,-0.07,-0.17,-0.13,0.05,0.19,0.15,0.01,-0.08,-0.07,-0.06,-0.08,-0.06,0.05,0.17,0.16,0.01,-0.15,-0.16,-0.08,0.01,0.07,0.15,0.19,0.08,-0.18,-0.33,-0.19,0.11,0.3,0.24,0.03,-0.14,-0.2,-0.17,-0.05,0.1,0.2,0.15,-0.02,-0.14,-0.1,0.01,0.04,-0.03,-0.05,0.03,0.12,0.08,-0.05,-0.11,-0.03,0.08,0.04,-0.1,-0.12,0.05,0.22,0.15,-0.11,-0.27,-0.15,0.09,0.2,0.1,-0.05,-0.08,-0.0,0.04,-0.02,-0.09,-0.07,0.03,0.12,0.13,0.07,-0.06,-0.19,-0.19,-0.03,0.17,0.22,0.07,-0.1,1
0.2876508300005408,0.2876445549632394,-0.78,0.76,0.22289999999999996,20.63,0.20838383838383837,32,97,0.36,-0.1,0.01,0.04,-0.06,-0.17,-0.12,0.1,0.32,0.36,0.12,-0.32,-0.64,-0.47,0.17,0.76,0.73,0.08,-0.62,-0.78,-0.31,0.33,0.61,0.38,-0.05,-0.32,-0.27,-0.07,0.04,0.03,0.03,0.11,0.18,0.12,-0.07,-0.26,-0.28,-0.07,0.21,0.34,0.2,-0.07,-0.27,-0.24,-0.05,0.13,0.17,0.08,-0.05,-0.07,0.01,0.08,0.03,-0.14,-0.25,-0.13,0.22,0.48,0.33,-0.18,-0.6,-0.5,0.04,0.51,0.52,0.12,-0.28,-0.36,-0.17,0.03,0.1,0.1,0.14,0.16,0.03,-0.19,-0.27,-0.08,0.16,0.19,0.02,-0.12,-0.06,0.1,0.15,0.0,-0.22,-0.28,-0.07,0.29,0.44,0.16,-0.33,-0.52,-0.18,0.34,0.44,0.06,-0.33,-0.25,0.15,1
0.19891958174096383,0.1988984414217467,-0.48,0.5,0.1563,14.44,0.14585858585858585,31,90,0.5,0.33,0.03,-0.38,-0.35,0.12,0.5,0.37,-0.12,-0.48,-0.39,0.03,0.37,0.36,0.08,-0.18,-0.23,-0.13,-0.04,0.01,0.09,0.2,0.19,0.0,-0.21,-0.24,-0.08,0.09,0.14,0.09,0.02,-0.02,-0.03,-0.02,-0.03,-0.05,-0.06,-0.03,0.05,0.14,0.16,0.05,-0.14,-0.25,-0.16,0.05,0.2,0.2,0.12,-0.0,-0.17,-0.29,-0.22,0.05,0.33,0.36,0.11,-0.23,-0.39,-0.23,0.12,0.36,0.25,-0.11,-0.35,-0.18,0.21,0.36,0.1,-0.29,-0.36,-0.05,0.28,0.3,0.05,-0.19,-0.19,-0.04,0.08,0.07,-0.01,-0.04,0.02,0.1,0.07,-0.07,-0.18,-0.13,0.05,0.19,0.15,-0.01,-0.11,-0.09,-0.03,-0.04,-0.04,0.04,0.16,0.16,-0.01,1
0.2253885533916929,0.2253813656893577,-0.53,0.53,0.18660000000000004,16.73,0.168989898989899,29,99,0.2,-0.19,-0.2,-0.03,0.15,0.18,0.04,-0.13,-0.14,0.03,0.2,0.13,-0.14,-0.34,-0.2,0.2,0.49,0.34,-0.15,-0.53,-0.44,0.01,0.39,0.41,0.14,-0.12,-0.2,-0.18,-0.16,-0.1,0.1,0.33,0.34,0.04,-0.33,-0.41,-0.14,0.19,0.28,0.15,0.01,-0.03,-0.06,-0.16,-0.24,-0.1,0.2,0.38,0.23,-0.13,-0.33,-0.22,0.02,0.11,0.05,0.03,0.13,0.21,0.07,-0.24,-0.41,-0.21,0.17,0.35,0.24,0.05,-0.04,-0.12,-0.26,-0.33,-0.09,0.35,0.53,0.22,-0.28,-0.46,-0.21,0.14,0.23,0.08,-0.05,-0.03,0.07,0.09,-0.03,-0.17,-0.2,-0.06,0.16,0.29,0.2,-0.07,-0.3,-0.28,-0.03,0.19,0.21,0.09,-0.0,-0.05,-0.1,1
0.1400821187732396,0.14007922758210797,-0.31,0.32,0.1149,10.330000000000002,0.10434343434343436,32,94,0.21,-0.15,-0.12,0.04,0.2,0.21,0.04,-0.15,-0.19,-0.08,0.06,0.12,0.05,-0.06,-0.06,0.07,0.16,0.04,-0.21,-0.28,-0.05,0.25,0.32,0.11,-0.17,-0.27,-0.15,0.04,0.15,0.12,0.03,-0.01,0.01,-0.01,-0.11,-0.16,-0.07,0.13,0.28,0.2,-0.07,-0.31,-0.29,-0.03,0.23,0.26,0.1,-0.07,-0.13,-0.1,-0.04,0.02,0.05,0.03,-0.01,0.01,0.08,0.09,-0.02,-0.18,-0.19,-0.01,0.2,0.22,0.05,-0.14,-0.18,-0.07,0.05,0.09,0.06,-0.01,-0.05,-0.02,0.05,0.06,-0.02,-0.12,-0.13,-0.02,0.15,0.22,0.1,-0.1,-0.22,-0.18,-0.03,0.12,0.2,0.17,0.03,-0.14,-0.22,-0.14,0.03,0.17,0.17,0.06,-0.06,-0.11,-0.08,1
0.25612692166189793,0.25611831250420186,-0.62,0.57,0.2119,18.46,0.18646464646464647,32,96,0.57,0.26,0.34,0.21,-0.17,-0.54,-0.52,-0.04,0.48,0.57,0.2,-0.24,-0.35,-0.18,-0.0,0.03,-0.0,0.07,0.21,0.23,0.03,-0.26,-0.36,-0.18,0.12,0.31,0.27,0.09,-0.1,-0.23,-0.24,-0.12,0.09,0.23,0.18,0.03,-0.03,-0.01,-0.09,-0.24,-0.24,0.05,0.38,0.4,0.09,-0.29,-0.44,-0.26,0.12,0.4,0.32,-0.03,-0.29,-0.22,0.03,0.17,0.07,-0.1,-0.13,-0.0,0.15,0.18,0.08,-0.09,-0.21,-0.21,-0.08,0.11,0.25,0.28,0.14,-0.14,-0.38,-0.35,-0.07,0.25,0.38,0.28,0.05,-0.22,-0.38,-0.32,-0.03,0.31,0.4,0.15,-0.17,-0.24,-0.06,0.07,-0.03,-0.19,-0.13,0.21,0.48,0.3,-0.23,-0.62,-0.44,0.13,0.52,1
0.22552161758909056,0.22551443412784025,-0.48,0.49,0.17920000000000003,16.68,0.1684848484848485,34,95,0.39,0.39,-0.03,-0.25,-0.15,0.0,-0.04,-0.16,-0.08,0.19,0.36,0.21,-0.12,-0.34,-0.3,-0.1,0.13,0.28,0.27,0.08,-0.14,-0.23,-0.16,-0.04,0.0,0.04,0.16,0.29,0.21,-0.14,-0.47,-0.43,0.01,0.44,0.49,0.14,-0.28,-0.41,-0.18,0.15,0.24,0.06,-0.12,-0.05,0.17,0.2,-0.07,-0.37,-0.33,0.07,0.43,0.43,0.09,-0.3,-0.48,-0.32,0.09,0.46,0.47,0.09,-0.35,-0.46,-0.19,0.17,0.3,0.16,-0.03,-0.09,-0.02,0.02,-0.05,-0.15,-0.1,0.08,0.22,0.16,-0.03,-0.16,-0.11,0.01,0.05,-0.02,-0.06,0.01,0.12,0.11,-0.01,-0.11,-0.1,-0.05,-0.04,0.0,0.14,0.24,0.08,-0.22,-0.33,-0.1,0.22,0.27,0.05,1
0.12941406415069423,0.129352232296161,-0.34,0.32,0.10020000000000003,8.830000000000002,0.08919191919191921,31,89,0.13,-0.13,-0.1,0.01,0.02,-0.07,-0.07,0.05,0.13,0.06,-0.05,-0.07,-0.02,-0.02,-0.04,0.0,0.07,0.05,-0.04,-0.05,0.06,0.12,-0.01,-0.21,-0.22,0.03,0.3,0.32,0.05,-0.26,-0.34,-0.14,0.13,0.24,0.16,0.02,-0.04,-0.05,-0.1,-0.15,-0.11,0.05,0.21,0.23,0.08,-0.11,-0.23,-0.21,-0.07,0.11,0.23,0.19,0.03,-0.14,-0.2,-0.12,0.03,0.12,0.1,0.02,-0.02,-0.0,-0.01,-0.05,-0.06,-0.01,0.03,0.02,0.02,0.05,0.06,0.0,-0.07,-0.09,-0.05,0.02,0.06,0.06,0.06,0.04,-0.02,-0.12,-0.16,-0.08,0.1,0.23,0.18,-0.02,-0.21,-0.22,-0.06,0.12,0.14,0.05,0.01,0.06,0.04,-0.16,-0.3,-0.13,0.24,1
0.1760908856244411,0.1760795274868717,-0.4,0.43,0.13840000000000002,12.8,0.1292929292929293,35,98,0.43,0.43,0.23,-0.15,-0.4,-0.34,-0.04,0.3,0.41,0.17,-0.2,-0.35,-0.17,0.12,0.19,0.04,-0.1,-0.04,0.13,0.16,-0.04,-0.26,-0.25,0.02,0.25,0.24,0.05,-0.1,-0.12,-0.1,-0.09,-0.05,0.08,0.19,0.17,-0.0,-0.17,-0.19,-0.05,0.07,0.06,-0.0,0.03,0.15,0.15,-0.08,-0.34,-0.32,0.02,0.37,0.39,0.07,-0.25,-0.31,-0.12,0.07,0.13,0.09,0.05,0.03,-0.0,-0.03,-0.04,-0.07,-0.13,-0.1,0.09,0.29,0.25,-0.06,-0.34,-0.29,0.03,0.25,0.19,-0.03,-0.12,-0.04,0.06,0.03,-0.09,-0.13,0.01,0.17,0.15,-0.01,-0.14,-0.11,-0.0,0.05,0.01,-0.03,0.04,0.14,0.09,-0.09,-0.21,-0.13,0.06,0.16,0.09,1
0.23114064982170487,0.23114056329428637,-0.7,0.75,0.17120000000000002,15.79,0.1594949494949495,33,92,0.22,0.0,-0.01,0.0,-0.06,-0.15,-0.09,0.12,0.22,0.07,-0.17,-0.17,0.07,0.22,0.05,-0.22,-0.23,0.04,0.26,0.19,-0.06,-0.17,-0.07,0.03,0.0,-0.06,-0.01,0.12,0.16,0.03,-0.13,-0.16,-0.06,0.04,0.05,0.05,0.11,0.17,0.08,-0.2,-0.41,-0.27,0.18,0.53,0.42,-0.05,-0.44,-0.42,-0.1,0.18,0.25,0.2,0.13,-0.01,-0.21,-0.32,-0.16,0.13,0.28,0.17,-0.01,-0.06,-0.01,-0.02,-0.13,-0.2,-0.1,0.1,0.27,0.32,0.18,-0.14,-0.5,-0.54,-0.08,0.56,0.75,0.26,-0.45,-0.7,-0.32,0.25,0.46,0.27,-0.03,-0.17,-0.18,-0.12,-0.03,0.1,0.18,0.12,-0.04,-0.16,-0.13,0.0,0.09,0.08,0.01,-0.03,-0.01,1
0.1631441080762649,0.16306747069848113,-0.35,0.29,0.13340000000000002,12.07,0.12191919191919193,32,97,0.19,-0.02,-0.05,-0.02,0.07,0.12,0.04,-0.11,-0.19,-0.11,0.09,0.25,0.23,0.0,-0.27,-0.33,-0.11,0.18,0.29,0.18,-0.0,-0.13,-0.18,-0.16,-0.06,0.09,0.22,0.19,0.02,-0.16,-0.19,-0.08,0.03,0.07,0.09,0.12,0.09,-0.07,-0.24,-0.2,0.04,0.25,0.22,0.01,-0.16,-0.17,-0.07,0.04,0.09,0.06,0.01,-0.01,0.01,0.04,0.01,-0.08,-0.17,-0.14,0.06,0.28,0.29,0.03,-0.27,-0.35,-0.15,0.13,0.26,0.21,0.08,-0.05,-0.16,-0.24,-0.19,0.04,0.29,0.29,0.04,-0.2,-0.19,-0.02,0.07,-0.01,-0.11,-0.04,0.14,0.26,0.15,-0.13,-0.33,-0.25,0.05,0.26,0.19,-0.02,-0.1,0.01,0.12,0.02,-0.21,-0.31,-0.11,1
0.26250714275996373,0.26247963730544893,-0.57,0.53,0.2138,18.07,0.18252525252525253,31,99,0.47,0.26,0.47,0.29,-0.14,-0.45,-0.4,-0.08,0.22,0.3,0.22,0.12,-0.01,-0.21,-0.39,-0.32,0.05,0.44,0.53,0.21,-0.27,-0.54,-0.41,-0.02,0.32,0.41,0.29,0.05,-0.21,-0.39,-0.37,-0.12,0.27,0.53,0.43,-0.01,-0.48,-0.57,-0.22,0.28,0.49,0.32,-0.04,-0.29,-0.3,-0.1,0.12,0.21,0.11,-0.05,-0.12,-0.06,0.04,0.05,-0.0,-0.03,0.01,0.03,-0.03,-0.08,-0.02,0.11,0.14,0.02,-0.13,-0.18,-0.1,0.07,0.21,0.22,0.07,-0.16,-0.32,-0.27,0.0,0.32,0.44,0.21,-0.22,-0.47,-0.34,0.03,0.29,0.3,0.16,0.03,-0.11,-0.26,-0.3,-0.12,0.18,0.38,0.3,-0.01,-0.29,-0.31,-0.09,0.14,0.17,0.02,-0.09,1
0.23704008099897367,0.23704008099897367,-0.59,0.5,0.1886,16.899999999999995,0.17070707070707067,32,95,0.28,-0.03,0.14,0.18,-0.0,-0.24,-0.28,-0.06,0.21,0.27,0.12,-0.07,-0.13,-0.07,-0.04,-0.09,-0.09,0.04,0.23,0.27,0.08,-0.21,-0.35,-0.21,0.06,0.24,0.26,0.17,0.01,-0.19,-0.35,-0.3,-0.0,0.36,0.5,0.27,-0.21,-0.59,-0.48,0.04,0.5,0.48,0.09,-0.24,-0.26,-0.11,-0.06,-0.08,0.04,0.28,0.34,0.04,-0.34,-0.38,-0.06,0.25,0.24,-0.0,-0.16,-0.05,0.14,0.14,-0.08,-0.28,-0.23,0.06,0.35,0.37,0.08,-0.29,-0.47,-0.31,0.11,0.48,0.49,0.09,-0.37,-0.5,-0.22,0.19,0.37,0.24,-0.02,-0.19,-0.19,-0.07,0.08,0.13,0.06,-0.05,-0.09,-0.05,0.02,0.08,0.08,0.03,-0.07,-0.13,-0.09,0.02,0.11,1
0.17222369175000288,0.17222366271799006,-0.37,0.39,0.1401,12.36,0.12484848484848485,34,94,0.2,0.13,0.09,-0.01,-0.12,-0.17,-0.12,-0.0,0.12,0.2,0.2,0.06,-0.19,-0.37,-0.26,0.09,0.39,0.35,0.0,-0.29,-0.23,0.02,0.13,0.0,-0.12,-0.03,0.18,0.23,0.04,-0.21,-0.29,-0.15,0.1,0.27,0.25,0.08,-0.14,-0.28,-0.25,-0.06,0.18,0.31,0.23,0.0,-0.23,-0.31,-0.18,0.08,0.27,0.23,0.01,-0.17,-0.12,0.05,0.1,-0.05,-0.18,-0.11,0.09,0.23,0.2,0.04,-0.15,-0.28,-0.25,-0.04,0.23,0.37,0.23,-0.09,-0.32,-0.28,-0.06,0.14,0.17,0.11,0.05,-0.0,-0.06,-0.13,-0.12,-0.02,0.1,0.13,0.05,-0.03,-0.03,-0.02,-0.03,-0.04,-0.03,-0.01,0.04,0.11,0.1,-0.0,-0.14,-0.17,-0.06,0.08,0.15,1
0.2026129314727962,0.20259871667905502,-0.48,0.44,0.168,14.71,0.1485858585858586,29,95,0.39,0.12,0.04,-0.03,-0.09,-0.17,-0.18,-0.02,0.25,0.39,0.19,-0.21,-0.48,-0.36,0.07,0.44,0.44,0.08,-0.3,-0.36,-0.12,0.15,0.19,0.05,-0.07,-0.06,0.02,0.08,0.08,-0.01,-0.15,-0.21,-0.07,0.18,0.3,0.17,-0.09,-0.24,-0.2,-0.06,0.05,0.11,0.13,0.13,0.09,-0.04,-0.21,-0.27,-0.13,0.13,0.32,0.29,0.07,-0.19,-0.35,-0.3,-0.05,0.27,0.41,0.26,-0.1,-0.38,-0.37,-0.06,0.27,0.35,0.13,-0.16,-0.25,-0.11,0.08,0.14,0.06,-0.05,-0.11,-0.05,0.1,0.18,0.07,-0.16,-0.28,-0.13,0.16,0.3,0.17,-0.09,-0.22,-0.15,-0.0,0.05,0.03,0.07,0.16,0.13,-0.07,-0.27,-0.24,-0.01,0.22,0.26,0.09,1
0.21617585434085831,0.2161646594612542,-0.54,0.53,0.1748,16.38,0.16545454545454544,36,95,0.24,-0.11,-0.18,-0.07,0.06,0.06,-0.06,-0.12,0.01,0.2,0.24,0.06,-0.19,-0.34,-0.26,0.03,0.36,0.44,0.16,-0.27,-0.47,-0.27,0.12,0.33,0.21,-0.03,-0.1,-0.01,0.03,-0.07,-0.17,-0.12,0.08,0.23,0.19,0.01,-0.16,-0.21,-0.12,0.04,0.2,0.21,0.03,-0.22,-0.26,-0.0,0.3,0.28,-0.09,-0.42,-0.31,0.18,0.53,0.33,-0.22,-0.54,-0.31,0.15,0.39,0.26,-0.0,-0.15,-0.15,-0.1,-0.06,-0.04,0.04,0.19,0.27,0.13,-0.2,-0.42,-0.26,0.15,0.39,0.24,-0.08,-0.23,-0.11,0.06,0.07,-0.04,-0.08,0.0,0.09,0.09,0.04,-0.0,-0.05,-0.12,-0.16,-0.09,0.11,0.29,0.26,-0.0,-0.31,-0.37,-0.13,0.18,0.31,1
0.17438749955200347,0.17436659657170578,-0.44,0.41,0.1411,13.910000000000002,0.14050505050505052,36,96,0.34,0.19,-0.0,-0.1,-0.1,-0.13,-0.16,-0.06,0.18,0.34,0.18,-0.18,-0.38,-0.19,0.18,0.34,0.11,-0.21,-0.26,0.01,0.27,0.2,-0.12,-0.33,-0.19,0.17,0.41,0.26,-0.15,-0.44,-0.34,0.05,0.36,0.34,0.06,-0.21,-0.25,-0.1,0.08,0.12,0.02,-0.06,-0.02,0.09,0.12,0.01,-0.15,-0.17,-0.02,0.12,0.13,0.02,-0.06,-0.04,-0.0,-0.02,-0.06,-0.01,0.1,0.14,0.01,-0.19,-0.2,0.04,0.25,0.17,-0.11,-0.25,-0.07,0.19,0.19,-0.05,-0.23,-0.12,0.12,0.21,0.07,-0.12,-0.14,-0.02,0.07,0.03,-0.03,0.01,0.1,0.08,-0.07,-0.18,-0.12,0.04,0.14,0.14,0.08,-0.0,-0.11,-0.21,-0.19,0.01,0.26,0.3,0.08,1
0.14671059948074647,0.14665046880252375,-0.47,0.38,0.118,10.409999999999998,0.10515151515151513,32,90,0.25,-0.19,-0.25,-0.09,0.07,0.09,0.01,-0.01,0.05,0.11,0.06,-0.07,-0.17,-0.15,-0.03,0.12,0.19,0.13,-0.02,-0.14,-0.16,-0.07,0.05,0.12,0.08,-0.01,-0.04,0.02,0.05,-0.03,-0.12,-0.11,0.02,0.14,0.16,0.09,-0.04,-0.17,-0.22,-0.09,0.14,0.26,0.16,-0.05,-0.18,-0.17,-0.06,0.05,0.12,0.12,0.04,-0.07,-0.1,-0.03,0.06,0.05,-0.05,-0.11,-0.04,0.12,0.2,0.1,-0.13,-0.26,-0.16,0.09,0.22,0.12,-0.05,-0.06,0.05,0.06,-0.11,-0.23,-0.11,0.15,0.28,0.17,-0.02,-0.13,-0.17,-0.18,-0.13,0.06,0.32,0.38,0.11,-0.31,-0.47,-0.22,0.17,0.33,0.2,-0.0,-0.1,-0.1,-0.07,-0.03,-0.01,-0.02,0.0,1
0.2006290108633345,0.20062741587330482,-0.51,0.49,0.15940000000000001,14.78,0.14929292929292928,33,95,0.42,0.1,0.19,0.14,-0.09,-0.32,-0.32,-0.04,0.29,0.42,0.23,-0.14,-0.42,-0.36,-0.0,0.32,0.31,0.02,-0.18,-0.09,0.11,0.07,-0.2,-0.32,-0.02,0.42,0.49,0.04,-0.47,-0.51,-0.09,0.33,0.36,0.11,-0.09,-0.1,-0.07,-0.12,-0.15,-0.04,0.18,0.27,0.13,-0.09,-0.19,-0.13,-0.04,-0.01,-0.01,0.08,0.19,0.19,0.0,-0.23,-0.28,-0.13,0.08,0.23,0.26,0.13,-0.11,-0.29,-0.25,-0.02,0.2,0.24,0.1,-0.06,-0.13,-0.1,-0.03,0.02,0.02,-0.01,0.02,0.11,0.16,0.03,-0.2,-0.3,-0.13,0.19,0.35,0.19,-0.1,-0.27,-0.18,0.03,0.14,0.07,-0.04,-0.02,0.09,0.1,-0.06,-0.2,-0.12,0.08,0.15,0.03,-0.06,1
0.2148371476258238,0.21483526246871112,-0.54,0.61,0.16949999999999998,15.000000000000002,0.15151515151515152,30,93,0.2,0.12,0.0,-0.12,-0.2,-0.14,0.03,0.15,0.08,-0.06,-0.04,0.14,0.24,0.02,-0.36,-0.47,-0.11,0.42,0.61,0.28,-0.27,-0.54,-0.33,0.06,0.23,0.14,0.07,0.16,0.19,-0.05,-0.4,-0.42,-0.05,0.33,0.37,0.16,-0.03,-0.1,-0.17,-0.25,-0.21,0.02,0.32,0.42,0.21,-0.17,-0.43,-0.38,-0.06,0.28,0.4,0.21,-0.1,-0.28,-0.21,-0.03,0.09,0.09,0.06,0.06,0.04,-0.01,-0.07,-0.1,-0.11,-0.06,0.08,0.21,0.19,0.01,-0.2,-0.25,-0.09,0.12,0.19,0.11,0.01,-0.04,-0.08,-0.13,-0.11,0.03,0.19,0.19,-0.0,-0.17,-0.13,0.03,0.11,0.02,-0.11,-0.11,0.04,0.21,0.21,-0.02,-0.28,-0.32,-0.06,0.25,0.32,1
0.18962594759156776,0.18942164607034753,-0.48,0.4,0.1596,14.17,0.14313131313131314,29,95,0.23,0.11,-0.13,-0.18,-0.06,0.03,0.02,-0.07,-0.08,0.06,0.23,0.21,-0.03,-0.28,-0.28,-0.05,0.18,0.22,0.1,-0.03,-0.06,-0.01,-0.02,-0.11,-0.17,-0.06,0.17,0.31,0.22,-0.07,-0.34,-0.37,-0.11,0.24,0.4,0.24,-0.08,-0.28,-0.23,-0.06,0.05,0.08,0.11,0.15,0.1,-0.08,-0.24,-0.18,0.04,0.2,0.1,-0.1,-0.12,0.08,0.23,0.1,-0.19,-0.32,-0.17,0.12,0.3,0.27,0.06,-0.18,-0.3,-0.22,-0.01,0.18,0.26,0.19,0.01,-0.19,-0.27,-0.18,0.03,0.21,0.24,0.12,-0.09,-0.23,-0.17,0.05,0.18,0.09,-0.1,-0.16,-0.01,0.18,0.2,0.03,-0.18,-0.26,-0.16,0.04,0.25,0.34,0.21,-0.12,-0.45,-0.48,-0.1,1
0.1996947670821647,0.19959849698832904,-0.49,0.59,0.16240000000000002,14.0,0.1414141414141414,30,90,0.59,0.4,0.59,0.29,-0.21,-0.49,-0.35,0.01,0.26,0.24,0.07,-0.05,-0.05,0.0,-0.01,-0.11,-0.17,-0.04,0.19,0.3,0.15,-0.13,-0.32,-0.25,-0.0,0.24,0.29,0.13,-0.09,-0.21,-0.2,-0.1,0.06,0.23,0.28,0.11,-0.2,-0.37,-0.21,0.13,0.32,0.2,-0.04,-0.14,-0.08,-0.03,-0.07,-0.08,0.03,0.18,0.18,0.01,-0.18,-0.2,-0.03,0.15,0.13,-0.05,-0.17,-0.04,0.2,0.23,-0.02,-0.3,-0.29,0.0,0.26,0.26,0.06,-0.09,-0.11,-0.09,-0.08,-0.07,0.01,0.13,0.2,0.14,-0.04,-0.22,-0.24,-0.08,0.11,0.18,0.13,0.07,0.06,-0.02,-0.22,-0.34,-0.17,0.21,0.44,0.3,-0.04,-0.27,-0.27,-0.16,-0.02,0.09,0.18,1
0.29521686943669057,0.2952119746893747,-0.89,0.82,0.2329,22.49,0.22717171717171716,35,98,0.35,0.22,0.18,0.02,-0.21,-0.35,-0.26,0.02,0.28,0.34,0.23,0.02,-0.22,-0.39,-0.35,-0.01,0.41,0.53,0.21,-0.29,-0.5,-0.27,0.12,0.29,0.17,-0.0,-0.01,0.04,-0.04,-0.21,-0.23,0.02,0.31,0.3,-0.03,-0.28,-0.18,0.11,0.19,-0.02,-0.21,-0.13,0.12,0.26,0.18,-0.04,-0.25,-0.28,-0.08,0.2,0.29,0.11,-0.15,-0.22,-0.03,0.18,0.15,-0.11,-0.3,-0.14,0.25,0.45,0.18,-0.3,-0.48,-0.19,0.22,0.29,0.06,-0.06,0.09,0.22,-0.03,-0.49,-0.57,-0.02,0.69,0.82,0.19,-0.63,-0.89,-0.38,0.39,0.75,0.46,-0.12,-0.49,-0.41,-0.05,0.27,0.29,0.04,-0.19,-0.16,0.06,0.2,0.11,-0.11,-0.22,-0.15,0.03,1
0.208631253651029,0.2086162745329328,-0.52,0.51,0.1613,15.049999999999999,0.152020202020202,36,94,0.32,0.19,0.24,0.13,-0.12,-0.32,-0.27,0.02,0.31,0.32,0.05,-0.21,-0.2,-0.03,0.04,-0.06,-0.1,0.08,0.35,0.34,-0.07,-0.51,-0.52,-0.05,0.46,0.51,0.13,-0.25,-0.29,-0.1,0.03,0.0,-0.02,0.06,0.13,0.1,0.01,-0.02,-0.05,-0.14,-0.23,-0.12,0.2,0.42,0.29,-0.12,-0.43,-0.35,-0.0,0.26,0.24,0.09,0.0,-0.02,-0.09,-0.19,-0.18,-0.0,0.21,0.27,0.12,-0.11,-0.23,-0.16,0.01,0.1,0.09,0.04,0.02,0.02,-0.01,-0.04,-0.04,-0.06,-0.1,-0.06,0.16,0.33,0.18,-0.24,-0.48,-0.23,0.25,0.43,0.16,-0.2,-0.22,0.0,0.12,-0.01,-0.16,-0.08,0.15,0.24,0.07,-0.17,-0.22,-0.06,0.11,0.11,-0.0,1
0.16398475538902998,0.16398106598019174,-0.46,0.49,0.1279,11.790000000000003,0.11909090909090912,32,91,0.19,-0.03,0.06,0.1,-0.01,-0.18,-0.18,-0.01,0.17,0.19,0.07,-0.07,-0.12,-0.1,-0.05,0.03,0.09,0.08,0.03,-0.02,-0.03,-0.03,-0.06,-0.08,-0.03,0.1,0.19,0.13,-0.08,-0.25,-0.2,0.04,0.24,0.19,-0.04,-0.18,-0.07,0.14,0.14,-0.09,-0.26,-0.14,0.17,0.32,0.16,-0.13,-0.29,-0.18,0.06,0.21,0.15,-0.0,-0.09,-0.04,0.01,-0.03,-0.1,-0.09,0.04,0.16,0.19,0.12,-0.02,-0.23,-0.36,-0.23,0.15,0.49,0.43,0.01,-0.41,-0.46,-0.14,0.22,0.3,0.13,-0.02,-0.03,-0.01,-0.08,-0.17,-0.13,0.03,0.18,0.22,0.11,-0.06,-0.2,-0.21,-0.07,0.11,0.18,0.09,-0.03,-0.04,0.02,0.01,-0.08,-0.14,-0.07,0.08,1
0.16357567056258704,0.16357490638848002,-0.36,0.36,0.12950000000000003,11.490000000000002,0.11606060606060609,33,97,0.3,0.18,0.15,0.04,-0.08,-0.17,-0.19,-0.1,0.11,0.3,0.27,-0.01,-0.32,-0.36,-0.07,0.25,0.29,0.1,-0.09,-0.13,-0.09,-0.07,-0.05,0.03,0.15,0.16,0.03,-0.1,-0.13,-0.08,-0.03,0.01,0.07,0.11,0.08,-0.0,-0.05,-0.08,-0.13,-0.12,0.03,0.21,0.24,0.03,-0.19,-0.2,-0.03,0.07,0.03,-0.02,0.05,0.13,0.07,-0.08,-0.15,-0.08,0.02,0.01,-0.02,0.06,0.22,0.2,-0.08,-0.36,-0.33,-0.0,0.31,0.36,0.15,-0.14,-0.3,-0.24,-0.01,0.2,0.22,0.06,-0.1,-0.13,-0.04,0.04,0.03,-0.02,-0.02,0.05,0.11,0.03,-0.14,-0.21,-0.03,0.25,0.3,0.03,-0.3,-0.33,-0.04,0.26,0.28,0.07,-0.14,-0.19,-0.13,1
0.2311103632466532,0.23110335350228045,-0.6,0.6,0.17739999999999997,16.200000000000003,0.16363636363636366,33,98,0.6,-0.04,0.11,0.29,0.26,-0.09,-0.48,-0.46,0.06,0.6,0.59,0.0,-0.58,-0.6,-0.1,0.41,0.49,0.18,-0.16,-0.27,-0.17,-0.07,-0.02,0.04,0.16,0.25,0.18,-0.08,-0.33,-0.34,-0.07,0.24,0.33,0.15,-0.08,-0.15,-0.09,-0.06,-0.08,-0.03,0.11,0.19,0.09,-0.09,-0.13,-0.0,0.07,-0.03,-0.13,-0.08,0.08,0.18,0.14,0.01,-0.11,-0.15,-0.14,-0.09,0.01,0.19,0.33,0.23,-0.12,-0.43,-0.39,-0.04,0.3,0.37,0.23,0.02,-0.2,-0.36,-0.3,0.02,0.36,0.38,0.06,-0.25,-0.24,-0.01,0.11,0.02,-0.09,-0.03,0.12,0.14,-0.01,-0.14,-0.09,0.05,0.09,-0.02,-0.13,-0.09,0.11,0.25,0.16,-0.11,-0.33,-0.28,0.02,1
0.17770199773778572,0.17767667263881323,-0.47,0.43,0.1356,13.040000000000001,0.13171717171717173,38,95,0.46,0.35,0.41,0.12,-0.3,-0.46,-0.22,0.18,0.38,0.25,-0.04,-0.22,-0.18,-0.04,0.06,0.07,0.03,-0.01,0.02,0.09,0.09,-0.06,-0.27,-0.27,0.05,0.42,0.43,0.01,-0.44,-0.47,-0.07,0.33,0.36,0.07,-0.18,-0.16,0.01,0.1,-0.0,-0.13,-0.1,0.05,0.15,0.14,0.05,-0.08,-0.19,-0.17,0.01,0.19,0.2,0.02,-0.16,-0.14,0.02,0.1,0.0,-0.11,-0.05,0.13,0.19,0.04,-0.17,-0.23,-0.09,0.14,0.25,0.15,-0.08,-0.23,-0.16,0.05,0.16,0.08,-0.06,-0.07,0.04,0.1,0.01,-0.12,-0.13,0.0,0.14,0.13,-0.01,-0.14,-0.09,0.07,0.14,0.03,-0.13,-0.14,0.01,0.16,0.14,-0.01,-0.12,-0.1,-0.03,-0.0,0.01,1
0.17817407218784667,0.17815206987290383,-0.39,0.4,0.146,13.64,0.13777777777777778,33,91,0.32,0.1,0.18,0.1,-0.15,-0.32,-0.18,0.15,0.32,0.16,-0.12,-0.17,0.01,0.12,-0.02,-0.22,-0.18,0.12,0.36,0.29,-0.04,-0.35,-0.39,-0.13,0.24,0.4,0.25,-0.04,-0.23,-0.25,-0.16,-0.02,0.13,0.26,0.26,0.06,-0.24,-0.38,-0.19,0.16,0.3,0.13,-0.09,-0.08,0.08,0.08,-0.16,-0.31,-0.09,0.29,0.39,0.1,-0.26,-0.34,-0.12,0.14,0.2,0.07,-0.06,-0.05,0.05,0.06,-0.06,-0.19,-0.13,0.09,0.25,0.17,-0.05,-0.17,-0.12,-0.0,0.05,0.01,-0.03,0.01,0.11,0.12,0.01,-0.14,-0.18,-0.07,0.1,0.17,0.1,-0.02,-0.09,-0.08,-0.03,-0.01,-0.01,0.02,0.08,0.12,0.06,-0.08,-0.2,-0.16,0.02,0.19,0.2,1
0.23694936167881944,0.23693819869324576,-0.53,0.55,0.18170000000000003,15.969999999999999,0.1613131313131313,33,93,0.17,0.06,-0.11,-0.17,-0.09,0.02,0.08,0.08,0.04,0.0,-0.03,-0.05,-0.05,-0.02,0.02,0.05,0.04,0.01,-0.02,-0.03,-0.02,-0.0,0.02,0.02,-0.01,-0.04,-0.02,0.07,0.12,0.05,-0.13,-0.26,-0.16,0.14,0.38,0.32,-0.03,-0.4,-0.48,-0.18,0.29,0.54,0.37,-0.07,-0.43,-0.44,-0.15,0.2,0.39,0.32,0.03,-0.27,-0.36,-0.17,0.12,0.26,0.17,-0.0,-0.07,-0.05,-0.06,-0.13,-0.11,0.07,0.25,0.21,-0.06,-0.3,-0.24,0.08,0.32,0.24,-0.08,-0.33,-0.28,0.01,0.31,0.38,0.15,-0.23,-0.48,-0.38,0.04,0.47,0.55,0.21,-0.28,-0.53,-0.38,-0.0,0.31,0.38,0.23,-0.0,-0.22,-0.33,-0.24,0.03,0.3,0.34,0.11,1
0.1754907404964718,0.17546335799818719,-0.37,0.38,0.14489999999999997,13.200000000000003,0.13333333333333336,29,94,0.28,-0.18,-0.28,-0.13,0.09,0.14,0.02,-0.07,-0.01,0.12,0.11,-0.06,-0.2,-0.13,0.08,0.18,0.06,-0.1,-0.09,0.05,0.13,0.02,-0.13,-0.14,-0.02,0.1,0.12,0.08,0.03,-0.04,-0.15,-0.21,-0.09,0.16,0.32,0.21,-0.09,-0.3,-0.27,-0.04,0.19,0.28,0.17,-0.05,-0.25,-0.26,-0.05,0.23,0.3,0.07,-0.24,-0.3,-0.02,0.29,0.29,-0.06,-0.37,-0.3,0.09,0.38,0.31,-0.02,-0.28,-0.29,-0.13,0.06,0.19,0.23,0.16,-0.01,-0.19,-0.27,-0.16,0.07,0.23,0.18,0.03,-0.04,-0.01,-0.03,-0.16,-0.22,-0.05,0.23,0.34,0.16,-0.16,-0.31,-0.2,0.04,0.17,0.15,0.05,-0.02,-0.05,-0.06,-0.07,-0.04,0.02,0.08,0.08,1
